[Header]
Data File Name	C:\Users\ydellero\Desktop\Projets CR\P2M2\TQD\210510_13C_Younes\13CPROT1.qgd
Output Date	23/08/2021
Output Time	14:08:03

[MS Quantitative Results]
# of IDs	262
ID#	Name	Type	ISTD Group#	Mass	Ret.Time	Start Time	End Time	A/H	Area	Height	Conc.	Mode	Peak#	Std.Ret.Time	Calibration Curve	3rd	2nd	1st	Constant	Ref.Ion Area	Ref.Ion Height	Ref.Ion Set Ratio	Ref.Ion Ratio	Recovery	SI	Ref.Ion1 m/z	Ref.Ion1 Area	Ref.Ion1 Height	Ref.Ion1 Set Ratio	Ref.Ion1 Ratio	Ref.Ion2 m/z	Ref.Ion2 Area	Ref.Ion2 Height	Ref.Ion2 Set Ratio	Ref.Ion2 Ratio	Ref.Ion3 m/z	Ref.Ion3 Area	Ref.Ion3 Height	Ref.Ion3 Set Ratio	Ref.Ion3 Ratio	Ref.Ion4 m/z	Ref.Ion4 Area	Ref.Ion4 Height	Ref.Ion4 Set Ratio	Ref.Ion4 Ratio	Ref.Ion5 m/z	Ref.Ion5 Area	Ref.Ion5 Height	Ref.Ion5 Set Ratio	Ref.Ion5 Ratio	Ret. Index	S/N	Unit	Description	Threshold
1	Glyoxylate (1MEOX) _TMS 1_m0	Target	1	160.00	6.393	6.337	6.437	2.640	388	147	0.00598	Auto	1	6.400	Default	0	0	0	0	743	541	84.50	191.50	0.00	25	73.00	743	541	84.50	191.50	59.00	175	189	49.59	45.10	0	0	0	0	0	0	0	0	0	0	0	0	0	0	0	1217	7.42	mg/L		0.00000
2	Glyoxylate (1MEOX) _TMS 1_m1	Target	1	161.00	6.402	6.380	6.430	1.720	238	138	0.00367	Auto	11	6.400	Default	0	0	0	0	0	0	84.50	0.00	0.00	20	73.00	0	0	84.50	0.00	59.00	0	0	49.59	0.00	0	0	0	0	0	0	0	0	0	0	0	0	0	0	0	1218	2.52	mg/L		0.00000
3	Glyoxylate (1MEOX) _TMS 1_m2	Target	1	162.00	6.411	6.390	6.437	1.660	73	44	0.00112	Auto	22	6.400	Default	0	0	0	0	0	0	84.50	0.00	0.00	21	73.00	0	0	84.50	0.00	59.00	415	200	49.59	568.49	0	0	0	0	0	0	0	0	0	0	0	0	0	0	0	1218	4.63	mg/L		0.00000
4	Pyruvate(1MEOX) C1-C3_TMS 1_m0	Target	1	174.00	7.218	7.190	7.277	2.140	579	270	0.00892	Auto	32	7.218	Default	0	0	0	0	960	595	79.37	165.80	0.00	11	73.00	960	595	79.37	165.80	128.00	151	85	51.94	26.08	0	0	0	0	0	0	0	0	0	0	0	0	0	0	0	1258	24.55	mg/L		0.00000
5	Pyruvate(1MEOX) C1-C3_TMS 1_m1	Target	1	175.00	7.213	7.200	7.223	1.280	32	25	0.00049	Auto	41	7.218	Default	0	0	0	0	960	595	79.37	3000.00	0.00	15	73.00	960	595	79.37	3000.00	128.00	151	85	51.94	471.88	0	0	0	0	0	0	0	0	0	0	0	0	0	0	0	1258	3.79	mg/L		0.00000
6	Pyruvate(1MEOX) C1-C3_TMS 1_m2	Target	1	176.00	7.223	7.180	7.243	2.100	107	51	0.00165	Auto	52	7.218	Default	0	0	0	0	960	595	79.37	897.20	0.00	21	73.00	960	595	79.37	897.20	128.00	151	85	51.94	141.12	0	0	0	0	0	0	0	0	0	0	0	0	0	0	0	1258	2.83	mg/L		0.00000
7	Pyruvate(1MEOX) C1-C3_TMS 1_m3	Target	1	177.00	7.229	7.207	7.270	1.400	167	119	0.00257	Auto	62	7.218	Default	0	0	0	0	960	595	79.37	574.85	0.00	25	73.00	960	595	79.37	574.85	128.00	151	85	51.94	90.42	0	0	0	0	0	0	0	0	0	0	0	0	0	0	0	1259	3.55	mg/L		0.00000
8	Glycolate_TMS 2_m0	Target	1	205.00	8.239	8.193	8.267	2.260	936	415	0.01442	Auto	71	8.227	Default	0	0	0	0	284695	144653	84.87	30416.13	0.00	63	73.00	284695	144653	84.87	30416.13	177.00	127	71	21.52	13.57	0	0	0	0	0	0	0	0	0	0	0	0	0	0	0	1310	39.52	mg/L		0.00000
9	Glycolate_TMS 2_m1	Target	1	206.00	8.228	8.187	8.273	2.100	386	184	0.00595	Auto	80	8.227	Default	0	0	0	0	0	0	84.87	0.00	0.00	66	73.00	0	0	84.87	0.00	177.00	127	71	21.52	32.90	0	0	0	0	0	0	0	0	0	0	0	0	0	0	0	1309	40.00	mg/L		0.00000
10	Glycolate_TMS 2_m2	Target	1	207.00	8.208	8.193	8.223	1.410	113	80	0.00174	Auto	89	8.227	Default	0	0	0	0	0	0	84.87	0.00	0.00	13	73.00	0	0	84.87	0.00	177.00	0	0	21.52	0.00	0	0	0	0	0	0	0	0	0	0	0	0	0	0	0	1308	1.75	mg/L		0.00000
11	Alaninealpha C2-C3_TMS 2_m0	Target	1	116.00	8.252	8.197	8.343	1.930	152712	79193	2.35256	Auto	98	8.253	Default	0	0	0	0	152712	79193	81.17	100.00	0.00	73	116.00	152712	79193	81.17	100.00	73.00	286441	144881	49.13	187.57	0	0	0	0	0	0	0	0	0	0	0	0	0	0	0	1311	79192.98	mg/L		0.00000
12	Alaninealpha C2-C3_TMS 2_m1	Target	1	117.00	8.251	8.203	8.303	1.910	304725	159645	4.69435	Auto	104	8.253	Default	0	0	0	0	152712	79193	81.17	50.12	0.00	73	116.00	152712	79193	81.17	50.12	73.00	286441	144881	49.13	94.00	0	0	0	0	0	0	0	0	0	0	0	0	0	0	0	1311	646.34	mg/L		0.00000
13	Alaninealpha C2-C3_TMS 2_m2	Target	1	118.00	8.251	8.203	8.307	1.910	180342	94176	2.77821	Auto	110	8.253	Default	0	0	0	0	152712	79193	81.17	84.68	0.00	73	116.00	152712	79193	81.17	84.68	73.00	286441	144881	49.13	158.83	0	0	0	0	0	0	0	0	0	0	0	0	0	0	0	1311	758.61	mg/L		0.00000
14	Valine C1-C2_TMS 2_m0	Target	1	218.00	10.237	10.197	10.287	1.820	9746	5360	0.15014	Auto	117	10.237	Default	0	0	0	0	205716	109037	45.40	2110.77	0.00	67	73.00	205716	109037	45.40	2110.77	145.00	106928	57063	14.31	1097.15	0	0	0	0	0	0	0	0	0	0	0	0	0	0	0	1426	369.66	mg/L		0.00000
15	Valine C1-C2_TMS 2_m1	Target	1	219.00	10.236	10.187	10.323	1.890	23521	12445	0.36235	Auto	124	10.237	Default	0	0	0	0	205716	109037	45.40	874.61	0.00	67	73.00	205716	109037	45.40	874.61	145.00	106928	57063	14.31	454.61	0	0	0	0	0	0	0	0	0	0	0	0	0	0	0	1426	2262.73	mg/L		0.00000
16	Valine C1-C2_TMS 2_m2	Target	1	220.00	10.235	10.197	10.323	1.840	16106	8763	0.24812	Auto	132	10.237	Default	0	0	0	0	205716	109037	45.40	1277.26	0.00	67	73.00	205716	109037	45.40	1277.26	145.00	106928	57063	14.31	663.90	0	0	0	0	0	0	0	0	0	0	0	0	0	0	0	1426	4381.50	mg/L		0.00000
17	Valine C2-C5_TMS 2_m0	Target	1	144.00	10.237	10.190	10.290	1.910	29912	15671	0.46080	Auto	137	10.237	Default	0	0	0	0	205716	109037	45.40	687.74	0.00	67	73.00	205716	109037	45.40	687.74	145.00	106928	57063	14.31	357.48	0	0	0	0	0	0	0	0	0	0	0	0	0	0	0	1426	505.52	mg/L		0.00000
18	Valine C2-C5_TMS 2_m1	Target	1	145.00	10.236	10.183	10.293	1.870	106928	57063	1.64725	Auto	143	10.237	Default	0	0	0	0	205716	109037	45.40	192.39	0.00	67	73.00	205716	109037	45.40	192.39	145.00	106928	57063	14.31	100.00	0	0	0	0	0	0	0	0	0	0	0	0	0	0	0	1426	929.60	mg/L		0.00000
19	Valine C2-C5_TMS 2_m2	Target	1	146.00	10.236	10.187	10.307	1.900	157843	82997	2.43160	Auto	149	10.237	Default	0	0	0	0	205716	109037	45.40	130.33	0.00	67	73.00	205716	109037	45.40	130.33	145.00	106928	57063	14.31	67.74	0	0	0	0	0	0	0	0	0	0	0	0	0	0	0	1426	1733.12	mg/L		0.00000
20	Valine C2-C5_TMS 2_m3	Target	1	147.00	10.235	10.187	10.323	1.900	164764	86801	2.53822	Auto	154	10.237	Default	0	0	0	0	205716	109037	45.40	124.86	0.00	67	73.00	205716	109037	45.40	124.86	145.00	106928	57063	14.31	64.90	0	0	0	0	0	0	0	0	0	0	0	0	0	0	0	1426	901.05	mg/L		0.00000
21	Valine C2-C5_TMS 2_m4	Target	1	148.00	10.236	10.193	10.327	1.940	46860	24197	0.72189	Auto	161	10.237	Default	0	0	0	0	205716	109037	45.40	439.00	0.00	67	73.00	205716	109037	45.40	439.00	145.00	106928	57063	14.31	228.19	0	0	0	0	0	0	0	0	0	0	0	0	0	0	0	1426	3024.62	mg/L		0.00000
22	Serine  C2-C3_TMS 2_m0	Target	1	132.00	10.861	10.817	10.933	2.200	14521	6603	0.22370	Auto	168	10.860	Default	0	0	0	0	50260	24991	83.67	346.12	0.00	76	73.00	50260	24991	83.67	346.12	132.00	14521	6603	71.11	100.00	0	0	0	0	0	0	0	0	0	0	0	0	0	0	0	1465	161.05	mg/L		0.00000
23	Serine  C2-C3_TMS 2_m1	Target	1	133.00	10.858	10.820	10.923	2.060	25326	12293	0.39015	Auto	174	10.860	Default	0	0	0	0	50260	24991	83.67	198.45	0.00	76	73.00	50260	24991	83.67	198.45	132.00	14521	6603	71.11	57.34	0	0	0	0	0	0	0	0	0	0	0	0	0	0	0	1465	75.42	mg/L		0.00000
24	Serine  C2-C3_TMS 2_m2	Target	1	134.00	10.858	10.813	10.907	2.050	12650	6174	0.19488	Auto	181	10.860	Default	0	0	0	0	50260	24991	83.67	397.31	0.00	76	73.00	50260	24991	83.67	397.31	132.00	14521	6603	71.11	114.79	0	0	0	0	0	0	0	0	0	0	0	0	0	0	0	1465	394.09	mg/L		0.00000
25	Serine  C2-C3_TMS 2_m0	Target	1	116.00	10.859	10.817	10.910	2.120	17150	8084	0.26420	Auto	189	10.860	Default	0	0	0	0	50260	24991	83.67	293.06	0.00	76	73.00	50260	24991	83.67	293.06	132.00	14521	6603	71.11	84.67	0	0	0	0	0	0	0	0	0	0	0	0	0	0	0	1465	285.32	mg/L		0.00000
26	Serine  C2-C3_TMS 2_m1	Target	1	117.00	10.859	10.813	10.930	2.100	27812	13242	0.42845	Auto	197	10.860	Default	0	0	0	0	50260	24991	83.67	180.71	0.00	76	73.00	50260	24991	83.67	180.71	132.00	14521	6603	71.11	52.21	0	0	0	0	0	0	0	0	0	0	0	0	0	0	0	1465	108.64	mg/L		0.00000
27	Serine  C2-C3_TMS 2_m2	Target	1	118.00	10.858	10.817	10.943	1.940	16419	8454	0.25294	Auto	205	10.860	Default	0	0	0	0	50260	24991	83.67	306.11	0.00	76	73.00	50260	24991	83.67	306.11	132.00	14521	6603	71.11	88.44	0	0	0	0	0	0	0	0	0	0	0	0	0	0	0	1465	939.33	mg/L		0.00000
28	Leucine C2-C6_TMS 2_m0	Target	1	158.00	11.123	11.060	11.163	1.920	20852	10868	0.32123	Auto	213	11.123	Default	0	0	0	0	183276	99872	35.13	878.94	0.00	48	73.00	183276	99872	35.13	878.94	102.00	39345	20859	13.54	188.69	0	0	0	0	0	0	0	0	0	0	0	0	0	0	0	1482	314.36	mg/L		0.00000
29	Leucine C2-C6_TMS 2_m1	Target	1	159.00	11.121	11.057	11.177	1.890	86110	45608	1.32654	Auto	221	11.123	Default	0	0	0	0	183276	99872	35.13	212.84	0.00	51	73.00	183276	99872	35.13	212.84	102.00	39345	20859	13.54	45.69	0	0	0	0	0	0	0	0	0	0	0	0	0	0	0	1482	2895.75	mg/L		0.00000
30	Leucine C2-C6_TMS 2_m2	Target	1	160.00	11.120	11.070	11.210	1.880	172078	91749	2.65090	Auto	228	11.123	Default	0	0	0	0	183276	99872	35.13	106.51	0.00	52	73.00	183276	99872	35.13	106.51	102.00	39345	20859	13.54	22.86	0	0	0	0	0	0	0	0	0	0	0	0	0	0	0	1482	1718.95	mg/L		0.00000
31	Leucine C2-C6_TMS 2_m3	Target	1	161.00	11.120	11.070	11.210	1.860	174426	93866	2.68707	Auto	236	11.123	Default	0	0	0	0	183276	99872	35.13	105.07	0.00	52	73.00	183276	99872	35.13	105.07	102.00	39345	20859	13.54	22.56	0	0	0	0	0	0	0	0	0	0	0	0	0	0	0	1482	6473.52	mg/L		0.00000
32	Leucine C2-C6_TMS 2_m4	Target	1	162.00	11.119	11.067	11.167	1.860	96913	52189	1.49296	Auto	243	11.123	Default	0	0	0	0	183276	99872	35.13	189.11	0.00	50	73.00	183276	99872	35.13	189.11	102.00	39345	20859	13.54	40.60	0	0	0	0	0	0	0	0	0	0	0	0	0	0	0	1482	1429.84	mg/L		0.00000
33	Leucine C2-C6_TMS 2_m5	Target	1	163.00	11.118	11.070	11.157	1.870	27748	14818	0.42746	Auto	251	11.123	Default	0	0	0	0	183276	99872	35.13	660.50	0.00	51	73.00	183276	99872	35.13	660.50	102.00	39345	20859	13.54	141.79	0	0	0	0	0	0	0	0	0	0	0	0	0	0	0	1482	1234.83	mg/L		0.00000
34	Isoleucine C2-C6_TMS 2_m0	Target	1	158.00	11.451	11.377	11.533	2.010	12590	6269	0.19395	Auto	258	11.456	Default	0	0	0	0	1065	662	14.72	8.46	0.00	36	69.00	1065	662	14.72	8.46	75.00	53289	18778	14.53	423.26	0	0	0	0	0	0	0	0	0	0	0	0	0	0	0	1503	797.87	mg/L		0.00000
35	Isoleucine C2-C6_TMS 2_m1	Target	1	159.00	11.451	11.410	11.537	2.010	49057	24459	0.75573	Auto	266	11.456	Default	0	0	0	0	1065	662	14.72	2.17	0.00	36	69.00	1065	662	14.72	2.17	75.00	53289	18778	14.53	108.63	0	0	0	0	0	0	0	0	0	0	0	0	0	0	0	1503	2357.49	mg/L		0.00000
36	Isoleucine C2-C6_TMS 2_m2	Target	1	160.00	11.451	11.410	11.507	1.860	97606	52479	1.50364	Auto	275	11.456	Default	0	0	0	0	1065	662	14.72	1.09	0.00	36	69.00	1065	662	14.72	1.09	75.00	53289	18778	14.53	54.60	0	0	0	0	0	0	0	0	0	0	0	0	0	0	0	1503	415.40	mg/L		0.00000
37	Isoleucine C2-C6_TMS 2_m3	Target	1	161.00	11.450	11.403	11.503	1.890	100222	53081	1.54394	Auto	283	11.456	Default	0	0	0	0	1065	662	14.72	1.06	0.00	36	69.00	1065	662	14.72	1.06	75.00	53289	18778	14.53	53.17	0	0	0	0	0	0	0	0	0	0	0	0	0	0	0	1503	31848.60	mg/L		0.00000
38	Isoleucine C2-C6_TMS 2_m4	Target	1	162.00	11.451	11.373	11.543	1.880	51744	27514	0.79713	Auto	291	11.456	Default	0	0	0	0	1065	662	14.72	2.06	0.00	36	69.00	1065	662	14.72	2.06	75.00	53289	18778	14.53	102.99	0	0	0	0	0	0	0	0	0	0	0	0	0	0	0	1503	2038.07	mg/L		0.00000
39	Isoleucine C2-C6_TMS 2_m5	Target	1	163.00	11.452	11.407	11.490	1.820	18182	9976	0.28010	Auto	300	11.456	Default	0	0	0	0	1065	662	14.72	5.86	0.00	33	69.00	1065	662	14.72	5.86	75.00	53289	18778	14.53	293.09	0	0	0	0	0	0	0	0	0	0	0	0	0	0	0	1503	586.82	mg/L		0.00000
40	Proline C2-C5_TMS 2_m0	Target	1	142.00	11.480	11.413	11.523	1.890	15909	8405	0.24508	Auto	308	11.482	Default	0	0	0	0	0	0	37.07	0.00	0.00	55	73.00	0	0	37.07	0.00	143.00	55216	29125	11.49	347.07	0	0	0	0	0	0	0	0	0	0	0	0	0	0	0	1505	622.59	mg/L		0.00000
41	Proline C2-C5_TMS 2_m1	Target	1	143.00	11.479	11.423	11.527	1.900	55216	29125	0.85061	Auto	313	11.482	Default	0	0	0	0	0	0	37.07	0.00	0.00	56	73.00	0	0	37.07	0.00	143.00	55216	29125	11.49	100.00	0	0	0	0	0	0	0	0	0	0	0	0	0	0	0	1505	278.79	mg/L		0.00000
42	Proline C2-C5_TMS 2_m2	Target	1	144.00	11.479	11.410	11.527	1.960	87980	44984	1.35535	Auto	316	11.482	Default	0	0	0	0	0	0	37.07	0.00	0.00	55	73.00	0	0	37.07	0.00	143.00	55216	29125	11.49	62.76	0	0	0	0	0	0	0	0	0	0	0	0	0	0	0	1505	667.67	mg/L		0.00000
43	Proline C2-C5_TMS 2_m3	Target	1	145.00	11.478	11.403	11.553	2.000	67872	33956	1.04558	Auto	320	11.482	Default	0	0	0	0	0	0	37.07	0.00	0.00	54	73.00	0	0	37.07	0.00	143.00	55216	29125	11.49	81.35	0	0	0	0	0	0	0	0	0	0	0	0	0	0	0	1505	616.36	mg/L		0.00000
44	Proline C2-C5_TMS 2_m4	Target	1	146.00	11.478	11.420	11.520	2.270	23395	10293	0.36040	Auto	324	11.482	Default	0	0	0	0	0	0	37.07	0.00	0.00	54	73.00	0	0	37.07	0.00	143.00	55216	29125	11.49	236.02	0	0	0	0	0	0	0	0	0	0	0	0	0	0	0	1505	33.80	mg/L		0.00000
45	Glycine  C2_TMS 3_m0	Target	1	174.00	11.636	11.583	11.723	1.840	410680	222919	6.32661	Auto	327	11.636	Default	0	0	0	0	387223	204826	39.86	94.29	0.00	83	73.00	387223	204826	39.86	94.29	147.00	218719	116549	29.10	53.26	0	0	0	0	0	0	0	0	0	0	0	0	0	0	0	1516	10132.68	mg/L		0.00000
46	Glycine  C2_TMS 3_m1	Target	1	175.00	11.636	11.583	11.687	1.860	449017	241359	6.91720	Auto	334	11.636	Default	0	0	0	0	387223	204826	39.86	86.24	0.00	83	73.00	387223	204826	39.86	86.24	147.00	218719	116549	29.10	48.71	0	0	0	0	0	0	0	0	0	0	0	0	0	0	0	1516	3239.72	mg/L		0.00000
47	Succinate C1-C4_TMS 2_m0	Target	1	247.00	11.685	11.677	11.707	0.810	50	62	0.00077	Auto	342	11.683	Default	0	0	0	0	0	0	36.65	0.00	0.00	77	73.00	0	0	36.65	0.00	148.00	2992	1938	16.10	5984.00	0	0	0	0	0	0	0	0	0	0	0	0	0	0	0	1520	3.87	mg/L		0.00000
48	Succinate C1-C4_TMS 2_m1	Target	1	248.00	11.699	11.680	11.740	1.910	271	142	0.00417	Auto	350	11.683	Default	0	0	0	0	0	0	36.65	0.00	0.00	11	73.00	0	0	36.65	0.00	148.00	0	0	16.10	0.00	0	0	0	0	0	0	0	0	0	0	0	0	0	0	0	1521	10.92	mg/L		0.00000
49	Succinate C1-C4_TMS 2_m2	Target	1	249.00	11.636	11.587	11.703	1.900	77256	40762	1.19014	Auto	356	11.683	Default	0	0	0	0	385179	204490	36.65	498.57	0.00	54	73.00	385179	204490	36.65	498.57	148.00	35563	18414	16.10	46.03	0	0	0	0	0	0	0	0	0	0	0	0	0	0	0	1516	321.91	mg/L		0.00000
50	Succinate C1-C4_TMS 2_m3	Target	1	250.00	11.687	11.677	11.703	0.850	28	33	0.00043	Auto	363	11.683	Default	0	0	0	0	0	0	36.65	0.00	0.00	75	73.00	0	0	36.65	0.00	148.00	2992	1938	16.10	10685.71	0	0	0	0	0	0	0	0	0	0	0	0	0	0	0	1520	2.17	mg/L		0.00000
51	Succinate C1-C4_TMS 2_m4	Target	1	251.00	11.685	11.673	11.707	0.990	74	75	0.00114	Auto	371	11.683	Default	0	0	0	0	0	0	36.65	0.00	0.00	78	73.00	0	0	36.65	0.00	148.00	2992	1938	16.10	4043.24	0	0	0	0	0	0	0	0	0	0	0	0	0	0	0	1520	10.42	mg/L		0.00000
52	Fumarate C1-C4_TMS 2_m0	Target	1	245.00	12.151	12.120	12.177	1.420	836	590	0.01288	Auto	378	12.183	Default	0	0	0	0	0	0	64.38	0.00	0.00	48	147.00	0	0	64.38	0.00	73.00	993	479	59.55	118.78	0	0	0	0	0	0	0	0	0	0	0	0	0	0	0	1553	1.88	mg/L		0.00000
53	Fumarate C1-C4_TMS 2_m1	Target	1	246.00	12.129	12.110	12.143	1.520	248	163	0.00382	Auto	385	12.151	Default	0	0	0	0	0	0	64.38	0.00	0.00	16	147.00	0	0	64.38	0.00	73.00	993	479	59.55	400.40	0	0	0	0	0	0	0	0	0	0	0	0	0	0	0	1551	46.57	mg/L		0.00000
54	Fumarate C1-C4_TMS 2_m2	Target	1	247.00	12.143	12.120	12.173	1.350	225	167	0.00347	Auto	393	12.151	Default	0	0	0	0	0	0	64.38	0.00	0.00	45	147.00	0	0	64.38	0.00	73.00	993	479	59.55	441.33	0	0	0	0	0	0	0	0	0	0	0	0	0	0	0	1552	8.49	mg/L		0.00000
55	Fumarate C1-C4_TMS 2_m3	Target	1	248.00	12.153	12.133	12.180	1.680	111	66	0.00171	Auto	402	12.151	Default	0	0	0	0	0	0	64.38	0.00	0.00	38	147.00	0	0	64.38	0.00	73.00	993	479	59.55	894.60	0	0	0	0	0	0	0	0	0	0	0	0	0	0	0	1553	3.84	mg/L		0.00000
56	Fumarate C1-C4_TMS 2_m4	Target	1	249.00	12.168	12.150	12.180	1.480	59	40	0.00091	Auto	410	12.151	Default	0	0	0	0	0	0	64.38	0.00	0.00	18	147.00	0	0	64.38	0.00	73.00	0	0	59.55	0.00	0	0	0	0	0	0	0	0	0	0	0	0	0	0	0	1554	5.00	mg/L		0.00000
57	Serine C2-C3_TMS 3_m0	Target	1	204.00	12.453	12.383	12.517	1.870	23340	12470	0.35956	Auto	416	12.450	Default	0	0	0	0	105895	55304	90.43	453.71	0.00	76	73.00	105895	55304	90.43	453.71	218.00	14400	7998	48.65	61.70	0	0	0	0	0	0	0	0	0	0	0	0	0	0	0	1574	151.46	mg/L		0.00000
58	Serine C2-C3_TMS 3_m1	Target	1	205.00	12.453	12.407	12.537	1.850	49349	26625	0.76023	Auto	423	12.450	Default	0	0	0	0	105895	55304	90.43	214.58	0.00	75	73.00	105895	55304	90.43	214.58	218.00	14400	7998	48.65	29.18	0	0	0	0	0	0	0	0	0	0	0	0	0	0	0	1574	6144.23	mg/L		0.00000
59	Serine C2-C3_TMS 3_m2	Target	1	206.00	12.452	12.400	12.493	1.880	29872	15929	0.46018	Auto	431	12.450	Default	0	0	0	0	105895	55304	90.43	354.50	0.00	76	73.00	105895	55304	90.43	354.50	218.00	14400	7998	48.65	48.21	0	0	0	0	0	0	0	0	0	0	0	0	0	0	0	1574	701.96	mg/L		0.00000
60	Serine C1-C2_TMS 3_m0	Target	1	218.00	12.453	12.393	12.510	1.800	14400	7998	0.22184	Auto	439	12.450	Default	0	0	0	0	105895	55304	90.43	735.38	0.00	76	73.00	105895	55304	90.43	735.38	218.00	14400	7998	48.65	100.00	0	0	0	0	0	0	0	0	0	0	0	0	0	0	0	1574	519.35	mg/L		0.00000
61	Serine C1-C2_TMS 3_m1	Target	1	219.00	12.452	12.407	12.497	1.870	24837	13247	0.38262	Auto	447	12.450	Default	0	0	0	0	105895	55304	90.43	426.36	0.00	76	73.00	105895	55304	90.43	426.36	218.00	14400	7998	48.65	57.98	0	0	0	0	0	0	0	0	0	0	0	0	0	0	0	1574	6623.50	mg/L		0.00000
62	Serine C1-C2_TMS 3_m2	Target	1	220.00	12.452	12.410	12.503	1.780	18287	10287	0.28172	Auto	456	12.450	Default	0	0	0	0	105895	55304	90.43	579.07	0.00	76	73.00	105895	55304	90.43	579.07	218.00	14400	7998	48.65	78.74	0	0	0	0	0	0	0	0	0	0	0	0	0	0	0	1574	1210.24	mg/L		0.00000
63	Glycerate C1-C3_TMS 3_m0	Target	1	307.00	12.507	12.490	12.537	1.720	283	165	0.00436	Auto	464	12.500	Default	0	0	0	0	0	0	69.46	0.00	0.00	17	147.00	0	0	69.46	0.00	189.00	0	0	46.63	0.00	0	0	0	0	0	0	0	0	0	0	0	0	0	0	0	1578	3.58	mg/L		0.00000
64	Glycerate C1-C3_TMS 3_m1	Target	1	308.00	12.504	12.487	12.533	1.180	59	50	0.00091	Auto	472	12.500	Default	0	0	0	0	0	0	69.46	0.00	0.00	20	147.00	0	0	69.46	0.00	189.00	0	0	46.63	0.00	0	0	0	0	0	0	0	0	0	0	0	0	0	0	0	1577	11.11	mg/L		0.00000
65	Glycerate C1-C3_TMS 3_m2	Target	1	309.00	12.506	12.483	12.547	1.500	135	90	0.00208	Auto	480	12.500	Default	0	0	0	0	0	0	69.46	0.00	0.00	6	147.00	0	0	69.46	0.00	189.00	0	0	46.63	0.00	0	0	0	0	0	0	0	0	0	0	0	0	0	0	0	1578	2.00	mg/L		0.00000
66	Glycerate C1-C3_TMS 3_m3	Target	1	310.00	12.493	12.483	12.503	0.960	23	24	0.00035	Auto	487	12.500	Default	0	0	0	0	0	0	69.46	0.00	0.00	25	147.00	0	0	69.46	0.00	189.00	0	0	46.63	0.00	0	0	0	0	0	0	0	0	0	0	0	0	0	0	0	1577	4.42	mg/L		0.00000
67	Glycerate C1-C2_TMS 3_m0	Target	1	292.00	12.492	12.477	12.507	1.000	14	14	0.00022	Auto	495	12.500	Default	0	0	0	0	0	0	69.46	0.00	0.00	9	147.00	0	0	69.46	0.00	189.00	0	0	46.63	0.00	0	0	0	0	0	0	0	0	0	0	0	0	0	0	0	1577	0.05	mg/L		0.00000
68	Glycerate C1-C2_TMS 3_m1	Target	1	293.00	12.512	12.497	12.537	1.680	67	40	0.00103	Auto	504	12.500	Default	0	0	0	0	0	0	69.46	0.00	0.00	17	147.00	0	0	69.46	0.00	189.00	99	60	46.63	147.76	0	0	0	0	0	0	0	0	0	0	0	0	0	0	0	1578	0.72	mg/L		0.00000
69	Glycerate C1-C2_TMS 3_m2	Target	1	294.00	12.466	12.433	12.507	1.930	283	147	0.00436	Auto	512	12.500	Default	0	0	0	0	21703	13184	69.46	7668.90	0.00	66	147.00	21703	13184	69.46	7668.90	189.00	7453	4777	46.63	2633.57	0	0	0	0	0	0	0	0	0	0	0	0	0	0	0	1575	5.44	mg/L		0.00000
70	Threonine C1-C2_TMS 3_m0	Target	1	291.00	12.837	12.797	12.877	1.800	5303	2947	0.08169	Auto	520	12.840	Default	0	0	0	0	153890	83217	79.37	2901.94	0.00	47	73.00	153890	83217	79.37	2901.94	128.00	2912	1758	51.94	54.91	0	0	0	0	0	0	0	0	0	0	0	0	0	0	0	1601	112.27	mg/L		0.00000
71	Threonine C1-C2_TMS 3_m1	Target	1	292.00	12.835	12.790	12.917	1.940	11463	5903	0.17659	Auto	528	12.840	Default	0	0	0	0	153890	83217	79.37	1342.49	0.00	47	73.00	153890	83217	79.37	1342.49	128.00	2912	1758	51.94	25.40	0	0	0	0	0	0	0	0	0	0	0	0	0	0	0	1601	198.66	mg/L		0.00000
72	Threonine C1-C2_TMS 3_m2	Target	1	293.00	12.836	12.793	12.890	1.830	12193	6657	0.18784	Auto	535	12.840	Default	0	0	0	0	153890	83217	79.37	1262.12	0.00	47	73.00	153890	83217	79.37	1262.12	128.00	2912	1758	51.94	23.88	0	0	0	0	0	0	0	0	0	0	0	0	0	0	0	1601	125.60	mg/L		0.00000
73	Threonine C2-C4_TMS 3_m0	Target	1	218.00	12.837	12.790	12.883	1.840	10069	5464	0.15512	Auto	542	12.840	Default	0	0	0	0	153890	83217	79.37	1528.35	0.00	47	73.00	153890	83217	79.37	1528.35	128.00	2912	1758	51.94	28.92	0	0	0	0	0	0	0	0	0	0	0	0	0	0	0	1601	296.50	mg/L		0.00000
74	Threonine C2-C4_TMS 3_m1	Target	1	219.00	12.835	12.797	12.920	1.860	37998	20452	0.58537	Auto	550	12.840	Default	0	0	0	0	153890	83217	79.37	405.00	0.00	47	73.00	153890	83217	79.37	405.00	128.00	2912	1758	51.94	7.66	0	0	0	0	0	0	0	0	0	0	0	0	0	0	0	1601	2152.84	mg/L		0.00000
75	Threonine C2-C4_TMS 3_m2	Target	1	220.00	12.837	12.773	12.920	1.940	45083	23261	0.69451	Auto	557	12.840	Default	0	0	0	0	153890	83217	79.37	341.35	0.00	47	73.00	153890	83217	79.37	341.35	128.00	2912	1758	51.94	6.46	0	0	0	0	0	0	0	0	0	0	0	0	0	0	0	1601	5815.25	mg/L		0.00000
76	Threonine C2-C4_TMS 3_m3	Target	1	221.00	12.837	12.790	12.883	1.840	28835	15641	0.44421	Auto	564	12.840	Default	0	0	0	0	153890	83217	79.37	533.69	0.00	47	73.00	153890	83217	79.37	533.69	128.00	2912	1758	51.94	10.10	0	0	0	0	0	0	0	0	0	0	0	0	0	0	0	1601	140.62	mg/L		0.00000
77	Threonine C2-C4_TMS 3_m0	Target	1	291.00	Not Identified									12.840	Default	0	0	0	0																																				
78	Threonine C2-C4_TMS 3_m1	Target	1	292.00	Not Identified									12.840	Default	0	0	0	0																																				
79	Threonine C2-C4_TMS 3_m2	Target	1	293.00	Not Identified									12.840	Default	0	0	0	0																																				
80	Threonine C2-C4_TMS 3_m3	Target	1	294.00	Not Identified									12.840	Default	0	0	0	0																																				
81	Aspartate C2-C4_TMS 2_m0	Target	1	160.00	13.233	13.200	13.280	1.960	8066	4117	0.12426	Auto	571	13.250	Default	0	0	0	0	88243	42681	79.37	1094.01	0.00	50	73.00	88243	42681	79.37	1094.01	128.00	588	349	51.94	7.29	0	0	0	0	0	0	0	0	0	0	0	0	0	0	0	1631	59.46	mg/L		0.00000
82	Aspartate C2-C4_TMS 2_m1	Target	1	161.00	13.229	13.190	13.293	2.030	22139	10901	0.34106	Auto	579	13.250	Default	0	0	0	0	88243	42681	79.37	398.59	0.00	50	73.00	88243	42681	79.37	398.59	128.00	588	349	51.94	2.66	0	0	0	0	0	0	0	0	0	0	0	0	0	0	0	1631	82.71	mg/L		0.00000
83	Aspartate C2-C4_TMS 2_m2	Target	1	162.00	13.229	13.190	13.273	1.860	21117	11352	0.32531	Auto	587	13.250	Default	0	0	0	0	88243	42681	79.37	417.88	0.00	50	73.00	88243	42681	79.37	417.88	128.00	588	349	51.94	2.78	0	0	0	0	0	0	0	0	0	0	0	0	0	0	0	1631	81.87	mg/L		0.00000
84	Aspartate C2-C4_TMS 2_m3	Target	1	163.00	13.229	13.193	13.280	2.040	9851	4833	0.15176	Auto	597	13.250	Default	0	0	0	0	88243	42681	79.37	895.78	0.00	53	73.00	88243	42681	79.37	895.78	128.00	588	349	51.94	5.97	0	0	0	0	0	0	0	0	0	0	0	0	0	0	0	1631	906.19	mg/L		0.00000
85	Alaninebeta C1-C3_TMS 3_m0	Target	1	290.00	13.301	13.290	13.333	0.940	17	18	0.00026	Auto	608	13.317	Default	0	0	0	0	0	0	81.17	0.00	0.00	22	116.00	0	0	81.17	0.00	73.00	1785	1312	49.13	10500.00	0	0	0	0	0	0	0	0	0	0	0	0	0	0	0	1636	12.00	mg/L		0.00000
86	Alaninebeta C1-C3_TMS 3_m1	Target	1	291.00	13.328	13.313	13.373	1.970	120	61	0.00185	Auto	620	13.317	Default	0	0	0	0	167	57	81.17	139.17	0.00	35	116.00	167	57	81.17	139.17	73.00	1785	1312	49.13	1487.50	0	0	0	0	0	0	0	0	0	0	0	0	0	0	0	1638	17.43	mg/L		0.00000
87	Alaninebeta C1-C3_TMS 3_m2	Target	1	292.00	13.313	13.297	13.343	1.400	73	52	0.00112	Auto	630	13.317	Default	0	0	0	0	0	0	81.17	0.00	0.00	26	116.00	0	0	81.17	0.00	73.00	1785	1312	49.13	2445.20	0	0	0	0	0	0	0	0	0	0	0	0	0	0	0	1637	34.67	mg/L		0.00000
88	Alaninebeta C1-C3_TMS 3_m3	Target	1	293.00	13.317	13.300	13.323	1.220	78	64	0.00120	Auto	641	13.317	Default	0	0	0	0	167	57	81.17	214.10	0.00	21	116.00	167	57	81.17	214.10	73.00	1785	1312	49.13	2288.46	0	0	0	0	0	0	0	0	0	0	0	0	0	0	0	1637	8.53	mg/L		0.00000
89	Malate C1-C4_TMS 3_m0	Target	1	335.00	14.146	14.127	14.173	1.400	56	40	0.00086	Auto	651	14.160	Default	0	0	0	0	0	0	63.24	0.00	0.00	13	147.00	0	0	63.24	0.00	233.00	0	0	17.93	0.00	0	0	0	0	0	0	0	0	0	0	0	0	0	0	0	1701	40.00	mg/L		0.00000
90	Malate C1-C4_TMS 3_m1	Target	1	336.00	14.165	14.143	14.190	1.820	69	38	0.00106	Auto	662	14.160	Default	0	0	0	0	1401	796	63.24	2030.43	0.00	51	147.00	1401	796	63.24	2030.43	233.00	216	111	17.93	313.04	0	0	0	0	0	0	0	0	0	0	0	0	0	0	0	1702	57.00	mg/L		0.00000
91	Malate C1-C4_TMS 3_m2	Target	1	337.00	14.160	14.143	14.173	1.160	29	25	0.00045	Auto	672	14.160	Default	0	0	0	0	1401	796	63.24	4831.03	0.00	37	147.00	1401	796	63.24	4831.03	233.00	216	111	17.93	744.83	0	0	0	0	0	0	0	0	0	0	0	0	0	0	0	1702	4.44	mg/L		0.00000
92	Malate C1-C4_TMS 3_m3	Target	1	338.00	14.168	14.130	14.190	2.050	39	19	0.00060	Auto	682	14.160	Default	0	0	0	0	1401	796	63.24	3592.31	0.00	47	147.00	1401	796	63.24	3592.31	233.00	216	111	17.93	553.85	0	0	0	0	0	0	0	0	0	0	0	0	0	0	0	1703	4.13	mg/L		0.00000
93	Malate C1-C4_TMS 3_m4	Target	1	339.00	14.143	14.113	14.167	2.100	63	30	0.00097	Auto	691	14.160	Default	0	0	0	0	0	0	63.24	0.00	0.00	10	147.00	0	0	63.24	0.00	233.00	0	0	17.93	0.00	0	0	0	0	0	0	0	0	0	0	0	0	0	0	0	1700	17.14	mg/L		0.00000
94	Malate C2-C4_TMS 3_m0	Target	1	233.00	14.164	14.113	14.187	1.950	216	111	0.00333	Auto	701	14.160	Default	0	0	0	0	1401	796	63.24	648.61	0.00	46	147.00	1401	796	63.24	648.61	233.00	216	111	17.93	100.00	0	0	0	0	0	0	0	0	0	0	0	0	0	0	0	1702	11.89	mg/L		0.00000
95	Malate C2-C4_TMS 3_m1	Target	1	234.00	14.159	14.117	14.217	1.740	311	179	0.00479	Auto	711	14.160	Default	0	0	0	0	1401	796	63.24	450.48	0.00	36	147.00	1401	796	63.24	450.48	233.00	216	111	17.93	69.45	0	0	0	0	0	0	0	0	0	0	0	0	0	0	0	1702	102.29	mg/L		0.00000
96	Malate C2-C4_TMS 3_m2	Target	1	235.00	14.144	14.127	14.163	1.030	40	39	0.00062	Auto	719	14.160	Default	0	0	0	0	0	0	63.24	0.00	0.00	7	147.00	0	0	63.24	0.00	233.00	0	0	17.93	0.00	0	0	0	0	0	0	0	0	0	0	0	0	0	0	0	1701	2.19	mg/L		0.00000
97	Malate C2-C4_TMS 3_m3	Target	1	236.00	14.152	14.123	14.183	2.130	96	45	0.00148	Auto	729	14.160	Default	0	0	0	0	1401	796	63.24	1459.38	0.00	35	147.00	1401	796	63.24	1459.38	233.00	216	111	17.93	225.00	0	0	0	0	0	0	0	0	0	0	0	0	0	0	0	1701	10.00	mg/L		0.00000
98	Methionine C2-C5_TMS 2_m0	Target	1	176.00	14.506	14.477	14.530	1.530	467	305	0.00719	Auto	739	14.518	Default	0	0	0	0	931	559	73.15	199.36	0.00	45	128.00	931	559	73.15	199.36	73.00	0	0	35.45	0.00	0	0	0	0	0	0	0	0	0	0	0	0	0	0	0	1730	0.42	mg/L		0.00000
99	Methionine C2-C5_TMS 2_m1	Target	1	177.00	14.512	14.477	14.537	1.680	2360	1405	0.03636	Auto	749	14.518	Default	0	0	0	0	931	559	73.15	39.45	0.00	43	128.00	931	559	73.15	39.45	73.00	0	0	35.45	0.00	0	0	0	0	0	0	0	0	0	0	0	0	0	0	0	1731	5.80	mg/L		0.00000
100	Methionine C2-C5_TMS 2_m2	Target	1	178.00	14.510	14.473	14.543	1.930	3786	1966	0.05832	Auto	758	14.518	Default	0	0	0	0	931	559	73.15	24.59	0.00	43	128.00	931	559	73.15	24.59	73.00	0	0	35.45	0.00	0	0	0	0	0	0	0	0	0	0	0	0	0	0	0	1730	6.18	mg/L		0.00000
101	Methionine C2-C5_TMS 2_m3	Target	1	179.00	14.507	14.473	14.550	2.130	2546	1193	0.03922	Auto	767	14.518	Default	0	0	0	0	931	559	73.15	36.57	0.00	30	128.00	931	559	73.15	36.57	73.00	0	0	35.45	0.00	0	0	0	0	0	0	0	0	0	0	0	0	0	0	0	1730	13.26	mg/L		0.00000
102	Methionine C2-C5_TMS 2_m4	Target	1	180.00	14.511	14.483	14.553	1.930	670	347	0.01032	Auto	777	14.518	Default	0	0	0	0	931	559	73.15	138.96	0.00	35	128.00	931	559	73.15	138.96	73.00	0	0	35.45	0.00	0	0	0	0	0	0	0	0	0	0	0	0	0	0	0	1730	46.27	mg/L		0.00000
103	Aspartate C2-C4_TMS 3_m0	Target	1	232.00	14.559	14.503	14.653	1.970	38637	19578	0.59521	Auto	787	14.566	Default	0	0	0	0	375120	178344	79.37	970.88	0.00	47	73.00	375120	178344	79.37	970.88	128.00	449	309	51.94	1.16	0	0	0	0	0	0	0	0	0	0	0	0	0	0	0	1734	4121.68	mg/L		0.00000
104	Aspartate C2-C4_TMS 3_m1	Target	1	233.00	14.559	14.500	14.653	1.890	108852	57683	1.67689	Auto	793	14.566	Default	0	0	0	0	375120	178344	79.37	344.62	0.00	47	73.00	375120	178344	79.37	344.62	128.00	449	309	51.94	0.41	0	0	0	0	0	0	0	0	0	0	0	0	0	0	0	1734	2958.10	mg/L		0.00000
105	Aspartate C2-C4_TMS 3_m2	Target	1	234.00	14.558	14.510	14.603	1.930	119678	62125	1.84366	Auto	799	14.566	Default	0	0	0	0	375120	178344	79.37	313.44	0.00	46	73.00	375120	178344	79.37	313.44	128.00	449	309	51.94	0.38	0	0	0	0	0	0	0	0	0	0	0	0	0	0	0	1734	1313.21	mg/L		0.00000
106	Aspartate C2-C4_TMS 3_m3	Target	1	235.00	14.558	14.503	14.610	1.880	57857	30701	0.89130	Auto	807	14.566	Default	0	0	0	0	375120	178344	79.37	648.36	0.00	47	73.00	375120	178344	79.37	648.36	128.00	449	309	51.94	0.78	0	0	0	0	0	0	0	0	0	0	0	0	0	0	0	1734	2361.62	mg/L		0.00000
107	2oxoglutarate(1MEOX) C1-C5_TMS 2_m5	Target	1	293.00	15.217	15.203	15.230	1.290	31	24	0.00048	Auto	816	15.222	Default	0	0	0	0	1379	810	63.24	4448.39	0.00	5	147.00	1379	810	63.24	4448.39	233.00	49	28	17.93	158.07	0	0	0	0	0	0	0	0	0	0	0	0	0	0	0	1788	12.00	mg/L		0.00000
108	2oxoglutarate(1MEOX) C1-C5_TMS 2_m0	Target	1	288.00	15.218	15.207	15.257	1.850	76	41	0.00117	Auto	828	15.222	Default	0	0	0	0	1379	810	63.24	1814.47	0.00	10	147.00	1379	810	63.24	1814.47	233.00	49	28	17.93	64.47	0	0	0	0	0	0	0	0	0	0	0	0	0	0	0	1788	2.73	mg/L		0.00000
109	2oxoglutarate(1MEOX) C1-C5_TMS 2_m1	Target	1	289.00	15.217	15.203	15.237	1.400	28	20	0.00043	Auto	837	15.222	Default	0	0	0	0	1379	810	63.24	4925.00	0.00	14	147.00	1379	810	63.24	4925.00	233.00	49	28	17.93	175.00	0	0	0	0	0	0	0	0	0	0	0	0	0	0	0	1788	2.04	mg/L		0.00000
110	2oxoglutarate(1MEOX) C1-C5_TMS 2_m2	Target	1	290.00	15.253	15.210	15.280	1.520	347	229	0.00535	Auto	849	15.222	Default	0	0	0	0	2812	1446	63.24	810.38	0.00	17	147.00	2812	1446	63.24	810.38	233.00	39	31	17.93	11.24	0	0	0	0	0	0	0	0	0	0	0	0	0	0	0	1791	16.96	mg/L		0.00000
111	2oxoglutarate(1MEOX) C1-C5_TMS 2_m3	Target	1	291.00	15.218	15.193	15.227	1.380	33	24	0.00051	Auto	859	15.222	Default	0	0	0	0	1379	810	63.24	4178.79	0.00	9	147.00	1379	810	63.24	4178.79	233.00	49	28	17.93	148.49	0	0	0	0	0	0	0	0	0	0	0	0	0	0	0	1788	5.33	mg/L		0.00000
112	2oxoglutarate(1MEOX) C1-C5_TMS 2_m4	Target	1	292.00	15.197	15.177	15.233	1.750	154	88	0.00237	Auto	870	15.222	Default	0	0	0	0	805	622	63.24	522.73	0.00	23	147.00	805	622	63.24	522.73	233.00	49	28	17.93	31.82	0	0	0	0	0	0	0	0	0	0	0	0	0	0	0	1786	88.00	mg/L		0.00000
113	Glutamate C2-C5_TMS 3_m0	Target	1	246.00	15.745	15.700	15.827	1.980	15889	8005	0.24477	Auto	881	15.745	Default	0	0	0	0	196601	105584	79.37	1237.34	0.00	66	73.00	196601	105584	79.37	1237.34	128.00	15508	7849	51.94	97.60	0	0	0	0	0	0	0	0	0	0	0	0	0	0	0	1833	640.40	mg/L		0.00000
114	Glutamate C2-C5_TMS 3_m1	Target	1	247.00	15.745	15.697	15.813	1.930	57485	29860	0.88557	Auto	886	15.745	Default	0	0	0	0	196601	105584	79.37	342.00	0.00	67	73.00	196601	105584	79.37	342.00	128.00	15508	7849	51.94	26.98	0	0	0	0	0	0	0	0	0	0	0	0	0	0	0	1833	332.70	mg/L		0.00000
115	Glutamate C2-C5_TMS 3_m2	Target	1	248.00	15.744	15.697	15.800	1.910	94542	49382	1.45644	Auto	891	15.745	Default	0	0	0	0	196601	105584	79.37	207.95	0.00	68	73.00	196601	105584	79.37	207.95	128.00	15508	7849	51.94	16.40	0	0	0	0	0	0	0	0	0	0	0	0	0	0	0	1833	1936.55	mg/L		0.00000
116	Glutamate C2-C5_TMS 3_m3	Target	1	249.00	15.744	15.700	15.830	1.930	76009	39408	1.17093	Auto	896	15.745	Default	0	0	0	0	196601	105584	79.37	258.65	0.00	65	73.00	196601	105584	79.37	258.65	128.00	15508	7849	51.94	20.40	0	0	0	0	0	0	0	0	0	0	0	0	0	0	0	1833	1169.17	mg/L		0.00000
117	Glutamate C2-C5_TMS 3_m4	Target	1	250.00	15.743	15.693	15.817	1.930	34552	17892	0.53228	Auto	902	15.745	Default	0	0	0	0	196601	105584	79.37	569.00	0.00	67	73.00	196601	105584	79.37	569.00	128.00	15508	7849	51.94	44.88	0	0	0	0	0	0	0	0	0	0	0	0	0	0	0	1833	911.69	mg/L		0.00000
118	Phenylalanine C1-C2_TMS 2_m0	Target	1	218.00	15.834	15.790	15.883	1.880	30206	16027	0.46533	Auto	907	15.830	Default	0	0	0	0	146032	76767	79.37	483.45	0.00	39	73.00	146032	76767	79.37	483.45	128.00	151	116	51.94	0.50	0	0	0	0	0	0	0	0	0	0	0	0	0	0	0	1841	1099.89	mg/L		0.00000
119	Phenylalanine C1-C2_TMS 2_m1	Target	1	219.00	15.833	15.787	15.880	1.890	56708	30079	0.87360	Auto	914	15.830	Default	0	0	0	0	146032	76767	79.37	257.52	0.00	39	73.00	146032	76767	79.37	257.52	128.00	151	116	51.94	0.27	0	0	0	0	0	0	0	0	0	0	0	0	0	0	0	1840	107.89	mg/L		0.00000
120	Phenylalanine C1-C2_TMS 2_m2	Target	1	220.00	15.832	15.783	15.893	1.850	40046	21616	0.61692	Auto	922	15.830	Default	0	0	0	0	146032	76767	79.37	364.66	0.00	39	73.00	146032	76767	79.37	364.66	128.00	151	116	51.94	0.38	0	0	0	0	0	0	0	0	0	0	0	0	0	0	0	1840	613.22	mg/L		0.00000
121	Phenylalanine C2-C9_TMS 2_m0	Target	1	192.00	15.831	15.793	15.917	1.810	892	492	0.01374	Auto	930	15.830	Default	0	0	0	0	146032	76767	79.37	16371.30	0.00	39	73.00	146032	76767	79.37	16371.30	128.00	151	116	51.94	16.93	0	0	0	0	0	0	0	0	0	0	0	0	0	0	0	1840	123.00	mg/L		0.00000
122	Phenylalanine C2-C9_TMS 2_m1	Target	1	193.00	15.835	15.797	15.870	2.130	2572	1208	0.03962	Auto	940	15.830	Default	0	0	0	0	146032	76767	79.37	5677.76	0.00	40	73.00	146032	76767	79.37	5677.76	128.00	151	116	51.94	5.87	0	0	0	0	0	0	0	0	0	0	0	0	0	0	0	1841	65.65	mg/L		0.00000
123	Phenylalanine C2-C9_TMS 2_m2	Target	1	194.00	15.834	15.777	15.893	1.810	10358	5721	0.15957	Auto	948	15.830	Default	0	0	0	0	146032	76767	79.37	1409.85	0.00	39	73.00	146032	76767	79.37	1409.85	128.00	151	116	51.94	1.46	0	0	0	0	0	0	0	0	0	0	0	0	0	0	0	1841	762.80	mg/L		0.00000
124	Phenylalanine C2-C9_TMS 2_m3	Target	1	195.00	15.834	15.790	15.883	1.870	20656	11065	0.31821	Auto	956	15.830	Default	0	0	0	0	146032	76767	79.37	706.97	0.00	39	73.00	146032	76767	79.37	706.97	128.00	151	116	51.94	0.73	0	0	0	0	0	0	0	0	0	0	0	0	0	0	0	1841	1580.71	mg/L		0.00000
125	Phenylalanine C2-C9_TMS 2_m4	Target	1	196.00	15.832	15.783	15.887	1.960	22488	11445	0.34643	Auto	964	15.830	Default	0	0	0	0	146032	76767	79.37	649.38	0.00	39	73.00	146032	76767	79.37	649.38	128.00	151	116	51.94	0.67	0	0	0	0	0	0	0	0	0	0	0	0	0	0	0	1840	143.96	mg/L		0.00000
126	Phenylalanine C2-C9_TMS 2_m5	Target	1	197.00	15.832	15.783	15.917	1.990	22697	11416	0.34965	Auto	971	15.830	Default	0	0	0	0	146032	76767	79.37	643.40	0.00	39	73.00	146032	76767	79.37	643.40	128.00	151	116	51.94	0.67	0	0	0	0	0	0	0	0	0	0	0	0	0	0	0	1840	2854.00	mg/L		0.00000
127	Phenylalanine C2-C9_TMS 2_m6	Target	1	198.00	15.833	15.783	15.890	1.770	11496	6477	0.17710	Auto	979	15.830	Default	0	0	0	0	146032	76767	79.37	1270.29	0.00	39	73.00	146032	76767	79.37	1270.29	128.00	151	116	51.94	1.31	0	0	0	0	0	0	0	0	0	0	0	0	0	0	0	1840	2159.00	mg/L		0.00000
128	Phenylalanine C2-C9_TMS 2_m7	Target	1	199.00	15.834	15.777	15.897	2.110	3695	1754	0.05692	Auto	987	15.830	Default	0	0	0	0	146032	76767	79.37	3952.15	0.00	39	73.00	146032	76767	79.37	3952.15	128.00	151	116	51.94	4.09	0	0	0	0	0	0	0	0	0	0	0	0	0	0	0	1841	184.63	mg/L		0.00000
129	Phenylalanine C2-C9_TMS 2_m8	Target	1	200.00	15.835	15.797	15.883	1.940	1680	868	0.02588	Auto	994	15.830	Default	0	0	0	0	146032	76767	79.37	8692.38	0.00	39	73.00	146032	76767	79.37	8692.38	128.00	151	116	51.94	8.99	0	0	0	0	0	0	0	0	0	0	0	0	0	0	0	1841	25.16	mg/L		0.00000
130	Asparagine C2-C4_TMS 3_m0	Target	1	231.00	16.356	16.317	16.377	1.820	102	56	0.00157	Auto	1001	16.359	Default	0	0	0	0	0	0	79.37	0.00	0.00	10	73.00	0	0	79.37	0.00	128.00	73	28	51.94	71.57	0	0	0	0	0	0	0	0	0	0	0	0	0	0	0	1886	33.60	mg/L		0.00000
131	Asparagine C2-C4_TMS 3_m1	Target	1	232.00	16.358	16.317	16.377	2.430	114	47	0.00176	Auto	1012	16.359	Default	0	0	0	0	0	0	79.37	0.00	0.00	10	73.00	0	0	79.37	0.00	128.00	73	28	51.94	64.03	0	0	0	0	0	0	0	0	0	0	0	0	0	0	0	1886	1.00	mg/L		0.00000
132	Asparagine C2-C4_TMS 3_m2	Target	1	233.00	16.346	16.327	16.370	1.280	46	36	0.00071	Auto	1022	16.359	Default	0	0	0	0	0	0	79.37	0.00	0.00	15	73.00	0	0	79.37	0.00	128.00	73	28	51.94	158.70	0	0	0	0	0	0	0	0	0	0	0	0	0	0	0	1885	1.45	mg/L		0.00000
133	Asparagine C2-C4_TMS 3_m3	Target	1	234.00	16.388	16.350	16.413	2.350	113	48	0.00174	Auto	1030	16.359	Default	0	0	0	0	1106	478	79.37	978.76	0.00	20	73.00	1106	478	79.37	978.76	128.00	66	45	51.94	58.41	0	0	0	0	0	0	0	0	0	0	0	0	0	0	0	1889	1.26	mg/L		0.00000
134	Asparagine C2-C4_TMS 2_m0	Target	1	159.00	16.800	16.777	16.823	1.400	203	145	0.00313	Auto	1039	16.821	Default	0	0	0	0	1268	497	79.37	624.63	0.00	22	73.00	1268	497	79.37	624.63	128.00	24	15	51.94	11.82	0	0	0	0	0	0	0	0	0	0	0	0	0	0	0	1924	0.96	mg/L		0.00000
135	Asparagine C2-C4_TMS 2_m1	Target	1	160.00	16.741	16.727	16.767	1.100	195	177	0.00300	Auto	1048	16.821	Default	0	0	0	0	872	653	79.37	447.18	0.00	21	73.00	872	653	79.37	447.18	128.00	127	103	51.94	65.13	0	0	0	0	0	0	0	0	0	0	0	0	0	0	0	1919	1.03	mg/L		0.00000
136	Asparagine C2-C4_TMS 2_m2	Target	1	161.00	16.825	16.793	16.857	1.790	191	107	0.00294	Auto	1055	16.821	Default	0	0	0	0	1268	497	79.37	663.87	0.00	19	73.00	1268	497	79.37	663.87	128.00	24	15	51.94	12.57	0	0	0	0	0	0	0	0	0	0	0	0	0	0	0	1926	0.55	mg/L		0.00000
137	Asparagine C2-C4_TMS 2_m3	Target	1	162.00	16.868	16.853	16.887	1.000	30	30	0.00046	Auto	1063	16.821	Default	0	0	0	0	0	0	79.37	0.00	0.00	12	73.00	0	0	79.37	0.00	128.00	0	0	51.94	0.00	0	0	0	0	0	0	0	0	0	0	0	0	0	0	0	1930	0.18	mg/L		0.00000
140	Glutamine C2-C5_TMS 3_m0	Target	1	245.00	17.534	17.507	17.560	1.650	214	130	0.00330	Auto	1081	17.540	Default	0	0	0	0	0	0	79.37	0.00	0.00	14	73.00	0	0	79.37	0.00	128.00	57	34	51.94	26.64	0	0	0	0	0	0	0	0	0	0	0	0	0	0	0	1986	8.12	mg/L		0.00000
141	Glutamine C2-C5_TMS 3_m1	Target	1	246.00	17.510	17.493	17.563	1.720	50	29	0.00077	Auto	1089	17.540	Default	0	0	0	0	3661	1648	79.37	7322.00	0.00	24	73.00	3661	1648	79.37	7322.00	128.00	0	0	51.94	0.00	0	0	0	0	0	0	0	0	0	0	0	0	0	0	0	1984	0.60	mg/L		0.00000
142	Glutamine C2-C5_TMS 3_m2	Target	1	247.00	17.553	17.537	17.573	1.840	247	134	0.00381	Auto	1098	17.540	Default	0	0	0	0	0	0	79.37	0.00	0.00	17	73.00	0	0	79.37	0.00	128.00	17	18	51.94	6.88	0	0	0	0	0	0	0	0	0	0	0	0	0	0	0	1988	4.74	mg/L		0.00000
143	Glutamine C2-C5_TMS 3_m3	Target	1	248.00	17.500	17.487	17.520	1.430	30	21	0.00046	Auto	1106	17.540	Default	0	0	0	0	3661	1648	79.37	12203.33	0.00	18	73.00	3661	1648	79.37	12203.33	128.00	0	0	51.94	0.00	0	0	0	0	0	0	0	0	0	0	0	0	0	0	0	1983	0.72	mg/L		0.00000
144	Glutamine C2-C5_TMS 3_m4	Target	1	249.00	17.554	17.537	17.573	1.240	47	38	0.00072	Auto	1116	17.540	Default	0	0	0	0	0	0	79.37	0.00	0.00	17	73.00	0	0	79.37	0.00	128.00	17	18	51.94	36.17	0	0	0	0	0	0	0	0	0	0	0	0	0	0	0	1988	1.65	mg/L		0.00000
145	Ornithine C1-C5_TMS 4_m0	Target	1	420.00	18.184	18.150	18.207	1.550	184	119	0.00283	Auto	1125	18.195	Default	0	0	0	0	0	0	79.37	0.00	0.00	23	73.00	0	0	79.37	0.00	128.00	0	0	51.94	0.00	0	0	0	0	0	0	0	0	0	0	0	0	0	0	0	2033	27.05	mg/L		0.00000
146	Ornithine C1-C5_TMS 4_m1	Target	1	421.00	18.207	18.177	18.247	2.870	86	30	0.00132	Auto	1133	18.195	Default	0	0	0	0	0	0	79.37	0.00	0.00	20	73.00	0	0	79.37	0.00	128.00	406	181	51.94	472.09	0	0	0	0	0	0	0	0	0	0	0	0	0	0	0	2035	2.90	mg/L		0.00000
147	Ornithine C1-C5_TMS 4_m2	Target	1	422.00	18.187	18.177	18.227	1.800	45	25	0.00069	Auto	1140	18.195	Default	0	0	0	0	0	0	79.37	0.00	0.00	12	73.00	0	0	79.37	0.00	128.00	0	0	51.94	0.00	0	0	0	0	0	0	0	0	0	0	0	0	0	0	0	2033	2.98	mg/L		0.00000
148	Ornithine C1-C5_TMS 4_m3	Target	1	423.00	18.188	18.170	18.203	1.080	14	13	0.00022	Auto	1146	18.195	Default	0	0	0	0	0	0	79.37	0.00	0.00	13	73.00	0	0	79.37	0.00	128.00	0	0	51.94	0.00	0	0	0	0	0	0	0	0	0	0	0	0	0	0	0	2033	0.85	mg/L		0.00000
149	Ornithine C1-C5_TMS 4_m4	Target	1	424.00	18.178	18.153	18.217	2.060	103	50	0.00159	Auto	1154	18.195	Default	0	0	0	0	0	0	79.37	0.00	0.00	26	73.00	0	0	79.37	0.00	128.00	0	0	51.94	0.00	0	0	0	0	0	0	0	0	0	0	0	0	0	0	0	2033	3.76	mg/L		0.00000
150	Ornithine C1-C5_TMS 4_m5	Target	1	425.00	18.199	18.160	18.227	2.520	106	42	0.00163	Auto	1162	18.195	Default	0	0	0	0	0	0	79.37	0.00	0.00	16	73.00	0	0	79.37	0.00	128.00	0	0	51.94	0.00	0	0	0	0	0	0	0	0	0	0	0	0	0	0	0	2034	6.00	mg/L		0.00000
151	Citrate C1-C6_TMS 4_m0	Target	1	465.00	18.298	18.277	18.320	1.410	58	41	0.00089	Auto	1170	18.292	Default	0	0	0	0	0	0	99.76	0.00	0.00	13	73.00	0	0	99.76	0.00	147.00	0	0	73.77	0.00	0	0	0	0	0	0	0	0	0	0	0	0	0	0	0	2041	1.96	mg/L		0.00000
152	Citrate C1-C6_TMS 4_m1	Target	1	466.00	18.301	18.287	18.320	1.210	41	34	0.00063	Auto	1175	18.292	Default	0	0	0	0	0	0	99.76	0.00	0.00	7	73.00	0	0	99.76	0.00	147.00	0	0	73.77	0.00	0	0	0	0	0	0	0	0	0	0	0	0	0	0	0	2041	2.71	mg/L		0.00000
153	Citrate C1-C6_TMS 4_m2	Target	1	467.00	18.308	18.287	18.327	1.380	87	63	0.00134	Auto	1180	18.292	Default	0	0	0	0	0	0	99.76	0.00	0.00	16	73.00	0	0	99.76	0.00	147.00	0	0	73.77	0.00	0	0	0	0	0	0	0	0	0	0	0	0	0	0	0	2042	37.80	mg/L		0.00000
154	Citrate C1-C6_TMS 4_m3	Target	1	468.00	18.283	18.263	18.320	1.930	81	42	0.00125	Auto	1185	18.292	Default	0	0	0	0	0	0	99.76	0.00	0.00	27	73.00	0	0	99.76	0.00	147.00	0	0	73.77	0.00	0	0	0	0	0	0	0	0	0	0	0	0	0	0	0	2040	2.63	mg/L		0.00000
155	Citrate C1-C6_TMS 4_m4	Target	1	469.00	18.315	18.293	18.333	1.500	36	24	0.00055	Auto	1188	18.292	Default	0	0	0	0	0	0	99.76	0.00	0.00	3	73.00	0	0	99.76	0.00	147.00	0	0	73.77	0.00	0	0	0	0	0	0	0	0	0	0	0	0	0	0	0	2042	2.11	mg/L		0.00000
156	Citrate C1-C6_TMS 4_m5	Target	1	470.00	18.278	18.270	18.307	1.180	33	28	0.00051	Auto	1192	18.292	Default	0	0	0	0	0	0	99.76	0.00	0.00	25	73.00	0	0	99.76	0.00	147.00	0	0	73.77	0.00	0	0	0	0	0	0	0	0	0	0	0	0	0	0	0	2040	0.87	mg/L		0.00000
157	Citrate C1-C6_TMS 4_m6	Target	1	471.00	18.329	18.303	18.350	1.500	45	30	0.00069	Auto	1196	18.292	Default	0	0	0	0	0	0	99.76	0.00	0.00	14	73.00	0	0	99.76	0.00	147.00	0	0	73.77	0.00	0	0	0	0	0	0	0	0	0	0	0	0	0	0	0	2043	1.22	mg/L		0.00000
158	Citrate C1-C5_TMS 4_m0	Target	1	273.00	18.286	18.230	18.310	2.110	610	289	0.00940	Auto	1198	18.292	Default	0	0	0	0	0	0	99.76	0.00	0.00	33	73.00	0	0	99.76	0.00	147.00	0	0	73.77	0.00	0	0	0	0	0	0	0	0	0	0	0	0	0	0	0	2040	37.16	mg/L		0.00000
159	Citrate C1-C5_TMS 4_m1	Target	1	274.00	18.280	18.260	18.303	1.350	287	212	0.00442	Auto	1203	18.292	Default	0	0	0	0	0	0	99.76	0.00	0.00	32	73.00	0	0	99.76	0.00	147.00	0	0	73.77	0.00	0	0	0	0	0	0	0	0	0	0	0	0	0	0	0	2040	13.51	mg/L		0.00000
160	Citrate C1-C5_TMS 4_m2	Target	1	275.00	18.267	18.243	18.307	2.310	383	166	0.00590	Auto	1208	18.292	Default	0	0	0	0	0	0	99.76	0.00	0.00	12	73.00	0	0	99.76	0.00	147.00	0	0	73.77	0.00	0	0	0	0	0	0	0	0	0	0	0	0	0	0	0	2039	20.75	mg/L		0.00000
161	Citrate C1-C5_TMS 4_m3	Target	1	276.00	18.284	18.263	18.300	1.310	94	72	0.00145	Auto	1213	18.292	Default	0	0	0	0	0	0	99.76	0.00	0.00	34	73.00	0	0	99.76	0.00	147.00	0	0	73.77	0.00	0	0	0	0	0	0	0	0	0	0	0	0	0	0	0	2040	43.20	mg/L		0.00000
162	Citrate C1-C5_TMS 4_m4	Target	1	277.00	18.288	18.270	18.307	1.620	81	50	0.00125	Auto	1218	18.292	Default	0	0	0	0	0	0	99.76	0.00	0.00	24	73.00	0	0	99.76	0.00	147.00	0	0	73.77	0.00	0	0	0	0	0	0	0	0	0	0	0	0	0	0	0	2040	8.06	mg/L		0.00000
163	Citrate C1-C5_TMS 4_m5	Target	1	278.00	18.297	18.283	18.337	1.770	83	47	0.00128	Auto	1223	18.292	Default	0	0	0	0	0	0	99.76	0.00	0.00	7	73.00	0	0	99.76	0.00	147.00	0	0	73.77	0.00	0	0	0	0	0	0	0	0	0	0	0	0	0	0	0	2041	1.67	mg/L		0.00000
164	Citrate C1-C5_TMS 4_m0	Target	1	363.00	18.287	18.267	18.303	1.420	47	33	0.00072	Auto	1227	18.292	Default	0	0	0	0	0	0	99.76	0.00	0.00	25	73.00	0	0	99.76	0.00	147.00	0	0	73.77	0.00	0	0	0	0	0	0	0	0	0	0	0	0	0	0	0	2040	19.80	mg/L		0.00000
165	Citrate C1-C5_TMS 4_m1	Target	1	364.00	18.300	18.287	18.323	1.330	60	45	0.00092	Auto	1232	18.292	Default	0	0	0	0	0	0	99.76	0.00	0.00	7	73.00	0	0	99.76	0.00	147.00	0	0	73.77	0.00	0	0	0	0	0	0	0	0	0	0	0	0	0	0	0	2041	20.45	mg/L		0.00000
166	Citrate C1-C5_TMS 4_m2	Target	1	365.00	18.284	18.263	18.307	1.330	136	102	0.00210	Auto	1237	18.292	Default	0	0	0	0	0	0	99.76	0.00	0.00	29	73.00	0	0	99.76	0.00	147.00	0	0	73.77	0.00	0	0	0	0	0	0	0	0	0	0	0	0	0	0	0	2040	7.03	mg/L		0.00000
167	Citrate C1-C5_TMS 4_m3	Target	1	366.00	18.273	18.257	18.300	1.560	53	34	0.00082	Auto	1241	18.292	Default	0	0	0	0	0	0	99.76	0.00	0.00	28	73.00	0	0	99.76	0.00	147.00	0	0	73.77	0.00	0	0	0	0	0	0	0	0	0	0	0	0	0	0	0	2039	6.07	mg/L		0.00000
168	Citrate C1-C5_TMS 4_m4	Target	1	367.00	18.284	18.263	18.303	1.240	89	72	0.00137	Auto	1246	18.292	Default	0	0	0	0	0	0	99.76	0.00	0.00	32	73.00	0	0	99.76	0.00	147.00	0	0	73.77	0.00	0	0	0	0	0	0	0	0	0	0	0	0	0	0	0	2040	41.14	mg/L		0.00000
169	Citrate C1-C5_TMS 4_m5	Target	1	368.00	18.290	18.263	18.317	2.250	90	40	0.00139	Auto	1252	18.292	Default	0	0	0	0	0	0	99.76	0.00	0.00	24	73.00	0	0	99.76	0.00	147.00	0	0	73.77	0.00	0	0	0	0	0	0	0	0	0	0	0	0	0	0	0	2040	5.13	mg/L		0.00000
170	Fructose(1MEOX)iso1 C4-C6_TMS 5_m0 	Target	1	307.00	Not Identified									19.302	Default	0	0	0	0																																				
171	Fructose(1MEOX)iso1 C4-C6_TMS 5_m1	Target	1	308.00	19.321	19.263	19.347	2.610	81	31	0.00125	Auto	1255	19.302	Default	0	0	0	0	0	0	88.94	0.00	0.00	33	103.00	0	0	88.94	0.00	217.00	0	0	86.99	0.00	0	0	0	0	0	0	0	0	0	0	0	0	0	0	0	2108	0.74	mg/L		0.00000
172	Fructose(1MEOX)iso1 C4-C6_TMS 5_m2	Target	1	309.00	19.285	19.263	19.303	1.280	123	96	0.00189	Auto	1257	19.302	Default	0	0	0	0	0	0	88.94	0.00	0.00	20	103.00	0	0	88.94	0.00	217.00	0	0	86.99	0.00	0	0	0	0	0	0	0	0	0	0	0	0	0	0	0	2106	57.60	mg/L		0.00000
173	Fructose(1MEOX)iso1 C4-C6_TMS 5_m3	Target	1	310.00	19.305	19.283	19.340	2.060	99	48	0.00153	Auto	1261	19.302	Default	0	0	0	0	0	0	88.94	0.00	0.00	24	103.00	0	0	88.94	0.00	217.00	0	0	86.99	0.00	0	0	0	0	0	0	0	0	0	0	0	0	0	0	0	2107	4.80	mg/L		0.00000
174	Fructose(1MEOX)iso1 C1-C4_TMS 5_m0 	Target	1	364.00	19.305	19.283	19.323	1.590	162	102	0.00250	Auto	1265	19.302	Default	0	0	0	0	0	0	88.94	0.00	0.00	15	103.00	0	0	88.94	0.00	217.00	0	0	86.99	0.00	0	0	0	0	0	0	0	0	0	0	0	0	0	0	0	2107	5.40	mg/L		0.00000
175	Fructose(1MEOX)iso1 C1-C4_TMS 5_m1 	Target	1	365.00	19.315	19.290	19.347	2.320	109	47	0.00168	Auto	1269	19.302	Default	0	0	0	0	0	0	88.94	0.00	0.00	22	103.00	0	0	88.94	0.00	217.00	0	0	86.99	0.00	0	0	0	0	0	0	0	0	0	0	0	0	0	0	0	2108	47.00	mg/L		0.00000
176	Fructose(1MEOX)iso1 C1-C4_TMS 5_m2 	Target	1	366.00	19.293	19.280	19.310	0.950	21	22	0.00032	Auto	1273	19.302	Default	0	0	0	0	0	0	88.94	0.00	0.00	16	103.00	0	0	88.94	0.00	217.00	0	0	86.99	0.00	0	0	0	0	0	0	0	0	0	0	0	0	0	0	0	2107	3.83	mg/L		0.00000
177	Fructose(1MEOX)iso1 C1-C4_TMS 5_m3	Target	1	367.00	19.314	19.293	19.330	1.600	93	58	0.00143	Auto	1277	19.302	Default	0	0	0	0	0	0	88.94	0.00	0.00	20	103.00	0	0	88.94	0.00	217.00	0	0	86.99	0.00	0	0	0	0	0	0	0	0	0	0	0	0	0	0	0	2108	4.59	mg/L		0.00000
178	Fructose(1MEOX)iso1 C1-C4_TMS 5_m4	Target	1	368.00	19.293	19.270	19.320	1.830	115	63	0.00177	Auto	1280	19.302	Default	0	0	0	0	0	0	88.94	0.00	0.00	20	103.00	0	0	88.94	0.00	217.00	0	0	86.99	0.00	0	0	0	0	0	0	0	0	0	0	0	0	0	0	0	2107	9.45	mg/L		0.00000
180	Fructose(1MEOX)iso2 C4-C6_TMS 5_m0 	Target	1	307.00	19.491	19.470	19.520	1.330	231	174	0.00356	Auto	1283	19.484	Default	0	0	0	0	0	0	88.94	0.00	0.00	30	103.00	0	0	88.94	0.00	217.00	0	0	86.99	0.00	0	0	0	0	0	0	0	0	0	0	0	0	0	0	0	2117	1.86	mg/L		0.00000
181	Fructose(1MEOX)iso2 C4-C6_TMS 5_m1	Target	1	308.00	19.475	19.450	19.557	3.210	77	24	0.00119	Auto	1284	19.484	Default	0	0	0	0	0	0	88.94	0.00	0.00	23	103.00	0	0	88.94	0.00	217.00	0	0	86.99	0.00	0	0	0	0	0	0	0	0	0	0	0	0	0	0	0	2117	1.09	mg/L		0.00000
182	Fructose(1MEOX)iso2 C4-C6_TMS 5_m2	Target	1	309.00	19.511	19.490	19.533	1.450	280	193	0.00431	Auto	1287	19.484	Default	0	0	0	0	0	0	88.94	0.00	0.00	16	103.00	0	0	88.94	0.00	217.00	0	0	86.99	0.00	0	0	0	0	0	0	0	0	0	0	0	0	0	0	0	2118	9.65	mg/L		0.00000
183	Fructose(1MEOX)iso2 C4-C6_TMS 5_m3	Target	1	310.00	19.476	19.440	19.510	2.450	108	44	0.00166	Auto	1290	19.484	Default	0	0	0	0	0	0	88.94	0.00	0.00	27	103.00	0	0	88.94	0.00	217.00	0	0	86.99	0.00	0	0	0	0	0	0	0	0	0	0	0	0	0	0	0	2117	8.96	mg/L		0.00000
184	Fructose(1MEOX)iso2 C1-C4_TMS 5_m0 	Target	1	364.00	19.508	19.460	19.530	2.310	113	49	0.00174	Auto	1292	19.484	Default	0	0	0	0	0	0	88.94	0.00	0.00	19	103.00	0	0	88.94	0.00	217.00	0	0	86.99	0.00	0	0	0	0	0	0	0	0	0	0	0	0	0	0	0	2118	2.17	mg/L		0.00000
185	Fructose(1MEOX)iso2 C1-C4_TMS 5_m1 	Target	1	365.00	19.485	19.463	19.500	1.280	23	18	0.00035	Auto	1296	19.484	Default	0	0	0	0	0	0	88.94	0.00	0.00	44	103.00	0	0	88.94	0.00	217.00	0	0	86.99	0.00	0	0	0	0	0	0	0	0	0	0	0	0	0	0	0	2117	4.50	mg/L		0.00000
186	Fructose(1MEOX)iso2 C1-C4_TMS 5_m2 	Target	1	366.00	19.463	19.447	19.483	0.940	17	18	0.00026	Auto	1300	19.484	Default	0	0	0	0	0	0	88.94	0.00	0.00	13	103.00	0	0	88.94	0.00	217.00	0	0	86.99	0.00	0	0	0	0	0	0	0	0	0	0	0	0	0	0	0	2116	1.24	mg/L		0.00000
187	Fructose(1MEOX)iso2 C1-C4_TMS 5_m3	Target	1	367.00	19.505	19.490	19.527	1.150	23	20	0.00035	Auto	1303	19.484	Default	0	0	0	0	0	0	88.94	0.00	0.00	13	103.00	0	0	88.94	0.00	217.00	0	0	86.99	0.00	0	0	0	0	0	0	0	0	0	0	0	0	0	0	0	2118	0.90	mg/L		0.00000
188	Fructose(1MEOX)iso2 C1-C4_TMS 5_m4	Target	1	368.00	19.483	19.467	19.493	1.000	10	10	0.00015	Auto	1308	19.484	Default	0	0	0	0	0	0	88.94	0.00	0.00	33	103.00	0	0	88.94	0.00	217.00	0	0	86.99	0.00	0	0	0	0	0	0	0	0	0	0	0	0	0	0	0	2117	0.33	mg/L		0.00000
189	Galactose(1MEOX)iso1 C3-C6_TMS 5_m0	Target	1	319.00	Not Identified									19.664	Default	0	0	0	0																																				
190	Galactose(1MEOX)iso1 C3-C6_TMS 5_m1	Target	1	320.00	Not Identified									19.664	Default	0	0	0	0																																				
191	Galactose(1MEOX)iso1 C3-C6_TMS 5_m2	Target	1	321.00	19.643	19.623	19.670	1.590	46	29	0.00071	Auto	1310	19.664	Default	0	0	0	0	0	0	61.66	0.00	0.00	24	147.00	0	0	61.66	0.00	319.00	0	0	60.70	0.00	0	0	0	0	0	0	0	0	0	0	0	0	0	0	0	2126	0.26	mg/L		0.00000
192	Galactose(1MEOX)iso1 C3-C6_TMS 5_m3	Target	1	322.00	19.653	19.643	19.677	1.000	23	23	0.00035	Auto	1312	19.664	Default	0	0	0	0	0	0	61.66	0.00	0.00	5	147.00	0	0	61.66	0.00	319.00	0	0	60.70	0.00	0	0	0	0	0	0	0	0	0	0	0	0	0	0	0	2126	1.47	mg/L		0.00000
193	Galactose(1MEOX)iso1 C3-C6_TMS 5_m4	Target	1	323.00	19.653	19.633	19.660	1.070	30	28	0.00046	Auto	1315	19.664	Default	0	0	0	0	0	0	61.66	0.00	0.00	15	147.00	0	0	61.66	0.00	319.00	0	0	60.70	0.00	0	0	0	0	0	0	0	0	0	0	0	0	0	0	0	2126	4.31	mg/L		0.00000
194	Galactose(1MEOX)iso1 C1-C2_TMS 5_m0	Target	1	160.00	19.657	19.637	19.703	2.230	158	71	0.00243	Auto	1319	19.664	Default	0	0	0	0	0	0	61.66	0.00	0.00	14	147.00	0	0	61.66	0.00	319.00	0	0	60.70	0.00	0	0	0	0	0	0	0	0	0	0	0	0	0	0	0	2126	1.00	mg/L		0.00000
195	Galactose(1MEOX)iso1 C1-C2_TMS 5_m1	Target	1	161.00	19.682	19.653	19.690	1.420	145	102	0.00223	Auto	1321	19.664	Default	0	0	0	0	0	0	61.66	0.00	0.00	13	147.00	0	0	61.66	0.00	319.00	0	0	60.70	0.00	0	0	0	0	0	0	0	0	0	0	0	0	0	0	0	2128	1.69	mg/L		0.00000
196	Galactose(1MEOX)iso1 C1-C2_TMS 5_m2	Target	1	162.00	19.687	19.667	19.700	1.380	33	24	0.00051	Auto	1324	19.664	Default	0	0	0	0	0	0	61.66	0.00	0.00	11	147.00	0	0	61.66	0.00	319.00	0	0	60.70	0.00	0	0	0	0	0	0	0	0	0	0	0	0	0	0	0	2128	0.43	mg/L		0.00000
197	Glucose(1MEOX)iso1 C3-C6_TMS 5_m0	Target	1	319.00	19.751	19.733	19.770	1.160	177	152	0.00273	Auto	1325	19.774	Default	0	0	0	0	177	152	65.81	100.00	0.00	22	319.00	177	152	65.81	100.00	147.00	0	0	62.48	0.00	0	0	0	0	0	0	0	0	0	0	0	0	0	0	0	2131	0.06	mg/L		0.00000
198	Glucose(1MEOX)iso1 C3-C6_TMS 5_m1	Target	1	320.00	Not Identified									19.774	Default	0	0	0	0																																				
199	Glucose(1MEOX)iso1 C3-C6_TMS 5_m2	Target	1	321.00	19.754	19.733	19.773	1.160	157	135	0.00242	Auto	1328	19.774	Default	0	0	0	0	177	152	65.81	112.74	0.00	24	319.00	177	152	65.81	112.74	147.00	0	0	62.48	0.00	0	0	0	0	0	0	0	0	0	0	0	0	0	0	0	2131	0.09	mg/L		0.00000
200	Glucose(1MEOX)iso1 C3-C6_TMS 5_m3	Target	1	322.00	19.753	19.733	19.777	1.180	40	34	0.00062	Auto	1331	19.774	Default	0	0	0	0	177	152	65.81	442.50	0.00	25	319.00	177	152	65.81	442.50	147.00	0	0	62.48	0.00	0	0	0	0	0	0	0	0	0	0	0	0	0	0	0	2131	0.20	mg/L		0.00000
201	Glucose(1MEOX)iso1 C3-C6_TMS 5_m4	Target	1	323.00	19.793	19.760	19.817	1.800	27	15	0.00042	Auto	1335	19.774	Default	0	0	0	0	0	0	65.81	0.00	0.00	7	319.00	0	0	65.81	0.00	147.00	0	0	62.48	0.00	0	0	0	0	0	0	0	0	0	0	0	0	0	0	0	2134	0.15	mg/L		0.00000
202	Glucose(1MEOX)iso1 C1-C2 _TMS 5_m0	Target	1	160.00	19.763	19.747	19.773	1.110	124	112	0.00191	Auto	1338	19.774	Default	0	0	0	0	177	152	65.81	142.74	0.00	28	319.00	177	152	65.81	142.74	147.00	0	0	62.48	0.00	0	0	0	0	0	0	0	0	0	0	0	0	0	0	0	2132	0.04	mg/L		0.00000
203	Glucose(1MEOX)iso1 C1-C2 _TMS 5_m1	Target	1	161.00	19.776	19.753	19.807	1.900	473	249	0.00729	Auto	1343	19.774	Default	0	0	0	0	0	0	65.81	0.00	0.00	20	319.00	0	0	65.81	0.00	147.00	0	0	62.48	0.00	0	0	0	0	0	0	0	0	0	0	0	0	0	0	0	2133	0.70	mg/L		0.00000
204	Glucose(1MEOX)iso1 C1-C2 _TMS 5_m2	Target	1	162.00	19.772	19.743	19.790	1.720	397	231	0.00612	Auto	1346	19.774	Default	0	0	0	0	0	0	65.81	0.00	0.00	29	319.00	0	0	65.81	0.00	147.00	0	0	62.48	0.00	0	0	0	0	0	0	0	0	0	0	0	0	0	0	0	2132	4.83	mg/L		0.00000
205	Lysine C2-C6_TMS 4_m0	Target	1	317.00	19.853	19.820	19.910	2.940	1507	512	0.02322	Auto	1351	19.869	Default	0	0	0	0	149078	58861	69.98	9892.37	0.00	64	73.00	149078	58861	69.98	9892.37	174.00	68697	26139	68.13	4558.53	0	0	0	0	0	0	0	0	0	0	0	0	0	0	0	2137	83.35	mg/L		0.00000
206	Lysine C2-C6_TMS 4_m1	Target	1	318.00	19.855	19.810	19.930	2.770	5384	1946	0.08294	Auto	1356	19.869	Default	0	0	0	0	149078	58861	69.98	2768.91	0.00	64	73.00	149078	58861	69.98	2768.91	174.00	68697	26139	68.13	1275.95	0	0	0	0	0	0	0	0	0	0	0	0	0	0	0	2137	113.26	mg/L		0.00000
207	Lysine C2-C6_TMS 4_m2	Target	1	319.00	19.859	19.833	19.907	2.100	8622	4097	0.13282	Auto	1359	19.869	Default	0	0	0	0	149078	58861	69.98	1729.04	0.00	62	73.00	149078	58861	69.98	1729.04	174.00	68697	26139	68.13	796.76	0	0	0	0	0	0	0	0	0	0	0	0	0	0	0	2137	7.40	mg/L		0.00000
208	Lysine C2-C6_TMS 4_m3	Target	1	320.00	19.862	19.810	19.910	2.670	15418	5777	0.23752	Auto	1362	19.869	Default	0	0	0	0	149078	58861	69.98	966.91	0.00	63	73.00	149078	58861	69.98	966.91	174.00	68697	26139	68.13	445.56	0	0	0	0	0	0	0	0	0	0	0	0	0	0	0	2137	54.67	mg/L		0.00000
209	Lysine C2-C6_TMS 4_m4	Target	1	321.00	19.860	19.787	19.917	2.850	10246	3599	0.15784	Auto	1365	19.869	Default	0	0	0	0	149078	58861	69.98	1454.99	0.00	64	73.00	149078	58861	69.98	1454.99	174.00	68697	26139	68.13	670.48	0	0	0	0	0	0	0	0	0	0	0	0	0	0	0	2137	1058.53	mg/L		0.00000
210	Lysine C2-C6_TMS 4_m5	Target	1	322.00	19.855	19.777	19.957	2.530	4524	1790	0.06969	Auto	1369	19.869	Default	0	0	0	0	149078	58861	69.98	3295.27	0.00	63	73.00	149078	58861	69.98	3295.27	174.00	68697	26139	68.13	1518.50	0	0	0	0	0	0	0	0	0	0	0	0	0	0	0	2137	213.10	mg/L		0.00000
211	Tyrosine C1-C2_TMS 3_m0	Target	1	218.00	20.182	20.140	20.237	2.440	30991	12698	0.47742	Auto	1373	20.190	Default	0	0	0	0	81424	32360	79.37	262.73	0.00	37	73.00	81424	32360	79.37	262.73	128.00	126	80	51.94	0.41	0	0	0	0	0	0	0	0	0	0	0	0	0	0	0	2154	29.81	mg/L		0.00000
212	Tyrosine C1-C2_TMS 3_m1	Target	1	219.00	20.182	20.120	20.260	2.760	77027	27931	1.18662	Auto	1379	20.190	Default	0	0	0	0	81424	32360	79.37	105.71	0.00	37	73.00	81424	32360	79.37	105.71	128.00	126	80	51.94	0.16	0	0	0	0	0	0	0	0	0	0	0	0	0	0	0	2154	342.95	mg/L		0.00000
213	Tyrosine C1-C2_TMS 3_m2	Target	1	220.00	20.180	20.117	20.257	2.890	46360	16056	0.71419	Auto	1385	20.190	Default	0	0	0	0	81424	32360	79.37	175.63	0.00	37	73.00	81424	32360	79.37	175.63	128.00	126	80	51.94	0.27	0	0	0	0	0	0	0	0	0	0	0	0	0	0	0	2154	209.06	mg/L		0.00000
214	Tyrosine C2-C9_TMS 3_m0	Target	1	280.00	20.191	20.153	20.247	2.070	531	257	0.00818	Auto	1392	20.190	Default	0	0	0	0	81424	32360	79.37	15334.09	0.00	38	73.00	81424	32360	79.37	15334.09	128.00	126	80	51.94	23.73	0	0	0	0	0	0	0	0	0	0	0	0	0	0	0	2155	7.42	mg/L		0.00000
215	Tyrosine C2-C9_TMS 3_m1	Target	1	281.00	20.182	20.160	20.213	1.480	585	395	0.00901	Auto	1400	20.190	Default	0	0	0	0	81424	32360	79.37	13918.63	0.00	36	73.00	81424	32360	79.37	13918.63	128.00	126	80	51.94	21.54	0	0	0	0	0	0	0	0	0	0	0	0	0	0	0	2154	62.07	mg/L		0.00000
216	Tyrosine C2-C9_TMS 3_m2	Target	1	282.00	20.180	20.147	20.233	2.190	2467	1127	0.03800	Auto	1407	20.190	Default	0	0	0	0	81424	32360	79.37	3300.53	0.00	37	73.00	81424	32360	79.37	3300.53	128.00	126	80	51.94	5.11	0	0	0	0	0	0	0	0	0	0	0	0	0	0	0	2154	20.31	mg/L		0.00000
217	Tyrosine C2-C9_TMS 3_m3	Target	1	283.00	20.187	20.137	20.247	3.030	4259	1406	0.06561	Auto	1414	20.190	Default	0	0	0	0	81424	32360	79.37	1911.81	0.00	38	73.00	81424	32360	79.37	1911.81	128.00	126	80	51.94	2.96	0	0	0	0	0	0	0	0	0	0	0	0	0	0	0	2155	180.26	mg/L		0.00000
218	Tyrosine C2-C9_TMS 3_m4	Target	1	284.00	20.184	20.123	20.277	2.500	5517	2208	0.08499	Auto	1422	20.190	Default	0	0	0	0	81424	32360	79.37	1475.88	0.00	37	73.00	81424	32360	79.37	1475.88	128.00	126	80	51.94	2.28	0	0	0	0	0	0	0	0	0	0	0	0	0	0	0	2154	368.00	mg/L		0.00000
219	Tyrosine C2-C9_TMS 3_m5	Target	1	285.00	20.186	20.127	20.267	2.830	6431	2273	0.09907	Auto	1429	20.190	Default	0	0	0	0	81424	32360	79.37	1266.12	0.00	37	73.00	81424	32360	79.37	1266.12	128.00	126	80	51.94	1.96	0	0	0	0	0	0	0	0	0	0	0	0	0	0	0	2155	441.97	mg/L		0.00000
220	Tyrosine C2-C9_TMS 3_m6	Target	1	286.00	20.176	20.123	20.237	3.220	3077	957	0.04740	Auto	1436	20.190	Default	0	0	0	0	81424	32360	79.37	2646.21	0.00	38	73.00	81424	32360	79.37	2646.21	128.00	126	80	51.94	4.09	0	0	0	0	0	0	0	0	0	0	0	0	0	0	0	2154	638.00	mg/L		0.00000
221	Tyrosine C2-C9_TMS 3_m7	Target	1	287.00	20.173	20.117	20.233	2.810	1351	480	0.02081	Auto	1444	20.190	Default	0	0	0	0	81424	32360	79.37	6026.94	0.00	38	73.00	81424	32360	79.37	6026.94	128.00	0	0	51.94	0.00	0	0	0	0	0	0	0	0	0	0	0	0	0	0	0	2154	12.97	mg/L		0.00000
222	Tyrosine C2-C9_TMS 3_m8	Target	1	288.00	20.178	20.153	20.200	1.400	120	86	0.00185	Auto	1452	20.190	Default	0	0	0	0	81424	32360	79.37	67853.33	0.00	38	73.00	81424	32360	79.37	67853.33	128.00	126	80	51.94	105.00	0	0	0	0	0	0	0	0	0	0	0	0	0	0	0	2154	28.67	mg/L		0.00000
223	Tryptophan C1-C2_TMS 2_m0	Target	1	218.00	Not Identified									25.031	Default	0	0	0	0																																				
224	Tryptophan C1-C2_TMS 2_m1	Target	1	219.00	Not Identified									25.031	Default	0	0	0	0																																				
225	Tryptophan C1-C2_TMS 2_m2	Target	1	220.00	25.011	24.987	25.033	1.560	84	54	0.00129	Auto	1466	25.031	Default	0	0	0	0	0	0	79.37	0.00	0.00	17	73.00	0	0	79.37	0.00	128.00	151	78	51.94	179.76	0	0	0	0	0	0	0	0	0	0	0	0	0	0	0	2404	2.36	mg/L		0.00000
226	Tryptophan C3-C11_TMS 2_m0	Target	1	130.00	25.021	25.000	25.040	1.190	115	97	0.00177	Auto	1473	25.031	Default	0	0	0	0	0	0	79.37	0.00	0.00	5	73.00	0	0	79.37	0.00	128.00	151	78	51.94	131.30	0	0	0	0	0	0	0	0	0	0	0	0	0	0	0	2405	1.68	mg/L		0.00000
227	Tryptophan C3-C11_TMS 2_m1	Target	1	131.00	25.013	24.990	25.033	1.320	83	63	0.00128	Auto	1478	25.031	Default	0	0	0	0	0	0	79.37	0.00	0.00	21	73.00	0	0	79.37	0.00	128.00	151	78	51.94	181.93	0	0	0	0	0	0	0	0	0	0	0	0	0	0	0	2404	2.85	mg/L		0.00000
228	Tryptophan C3-C11_TMS 2_m2	Target	1	132.00	25.059	25.020	25.103	1.670	249	149	0.00384	Auto	1485	25.031	Default	0	0	0	0	0	0	79.37	0.00	0.00	19	73.00	0	0	79.37	0.00	128.00	0	0	51.94	0.00	0	0	0	0	0	0	0	0	0	0	0	0	0	0	0	2408	8.05	mg/L		0.00000
229	Tryptophan C3-C11_TMS 2_m3	Target	1	133.00	25.050	24.960	25.067	4.410	749	170	0.01154	Auto	1489	25.031	Default	0	0	0	0	0	0	79.37	0.00	0.00	16	73.00	0	0	79.37	0.00	128.00	0	0	51.94	0.00	0	0	0	0	0	0	0	0	0	0	0	0	0	0	0	2408	42.50	mg/L		0.00000
230	Tryptophan C3-C11_TMS 2_m4	Target	1	134.00	25.033	25.020	25.053	1.220	39	32	0.00060	Auto	1496	25.031	Default	0	0	0	0	0	0	79.37	0.00	0.00	28	73.00	0	0	79.37	0.00	128.00	151	78	51.94	387.18	0	0	0	0	0	0	0	0	0	0	0	0	0	0	0	2406	4.87	mg/L		0.00000
231	Tryptophan C3-C11_TMS 2_m5	Target	1	135.00	25.036	25.023	25.053	1.400	109	78	0.00168	Auto	1502	25.031	Default	0	0	0	0	0	0	79.37	0.00	0.00	25	73.00	0	0	79.37	0.00	128.00	151	78	51.94	138.53	0	0	0	0	0	0	0	0	0	0	0	0	0	0	0	2406	1.81	mg/L		0.00000
232	Tryptophan C3-C11_TMS 2_m6	Target	1	136.00	25.037	25.030	25.063	0.780	7	9	0.00011	Auto	1510	25.031	Default	0	0	0	0	0	0	79.37	0.00	0.00	22	73.00	0	0	79.37	0.00	128.00	151	78	51.94	2157.14	0	0	0	0	0	0	0	0	0	0	0	0	0	0	0	2406	1.08	mg/L		0.00000
233	Tryptophan C3-C11_TMS 2_m7	Target	1	137.00	25.013	24.993	25.043	2.060	35	17	0.00054	Auto	1515	25.031	Default	0	0	0	0	0	0	79.37	0.00	0.00	11	73.00	0	0	79.37	0.00	128.00	151	78	51.94	431.43	0	0	0	0	0	0	0	0	0	0	0	0	0	0	0	2404	0.93	mg/L		0.00000
234	Tryptophan C3-C11_TMS 2_m8	Target	1	138.00	25.015	24.993	25.040	2.190	81	37	0.00125	Auto	1522	25.031	Default	0	0	0	0	0	0	79.37	0.00	0.00	14	73.00	0	0	79.37	0.00	128.00	151	78	51.94	186.42	0	0	0	0	0	0	0	0	0	0	0	0	0	0	0	2405	5.69	mg/L		0.00000
235	Tryptophan C3-C11_TMS 2_m9	Target	1	139.00	25.016	24.987	25.037	1.320	50	38	0.00077	Auto	1528	25.031	Default	0	0	0	0	0	0	79.37	0.00	0.00	12	73.00	0	0	79.37	0.00	128.00	151	78	51.94	302.00	0	0	0	0	0	0	0	0	0	0	0	0	0	0	0	2405	0.71	mg/L		0.00000
236	Tryptophan C1-C2_TMS 3_m0	Target	1	218.00	25.539	25.520	25.547	0.990	68	69	0.00105	Auto	1534	25.460	Default	0	0	0	0	1474	966	79.37	2167.65	0.00	20	73.00	1474	966	79.37	2167.65	128.00	35	25	51.94	51.47	0	0	0	0	0	0	0	0	0	0	0	0	0	0	0	2450	1.12	mg/L		0.00000
237	Tryptophan C1-C2_TMS 3_m1	Target	1	219.00	Not Identified									25.460	Default	0	0	0	0																																				
238	Tryptophan C1-C2_TMS 3_m2	Target	1	220.00	25.465	25.447	25.517	2.230	116	52	0.00179	Auto	1546	25.460	Default	0	0	0	0	0	0	79.37	0.00	0.00	12	73.00	0	0	79.37	0.00	128.00	42	40	51.94	36.21	0	0	0	0	0	0	0	0	0	0	0	0	0	0	0	2444	3.71	mg/L		0.00000
239	Tryptophan C3-C11_TMS 3_m0	Target	1	202.00	25.474	25.433	25.510	2.410	210	87	0.00324	Auto	1553	25.460	Default	0	0	0	0	0	0	79.37	0.00	0.00	7	73.00	0	0	79.37	0.00	128.00	42	40	51.94	20.00	0	0	0	0	0	0	0	0	0	0	0	0	0	0	0	2444	4.83	mg/L		0.00000
240	Tryptophan C3-C11_TMS 3_m1	Target	1	203.00	25.473	25.437	25.490	2.290	39	17	0.00060	Auto	1560	25.460	Default	0	0	0	0	0	0	79.37	0.00	0.00	13	73.00	0	0	79.37	0.00	128.00	42	40	51.94	107.69	0	0	0	0	0	0	0	0	0	0	0	0	0	0	0	2444	3.00	mg/L		0.00000
241	Tryptophan C3-C11_TMS 3_m2	Target	1	204.00	25.529	25.513	25.550	1.140	74	65	0.00114	Auto	1567	25.460	Default	0	0	0	0	1474	966	79.37	1991.89	0.00	27	73.00	1474	966	79.37	1991.89	128.00	35	25	51.94	47.30	0	0	0	0	0	0	0	0	0	0	0	0	0	0	0	2449	1.83	mg/L		0.00000
242	Tryptophan C3-C11_TMS 3_m3	Target	1	205.00	Not Identified									25.460	Default	0	0	0	0																																				
243	Tryptophan C3-C11_TMS 3_m4	Target	1	206.00	25.444	25.423	25.463	1.170	116	99	0.00179	Auto	1578	25.460	Default	0	0	0	0	0	0	79.37	0.00	0.00	13	73.00	0	0	79.37	0.00	128.00	169	131	51.94	145.69	0	0	0	0	0	0	0	0	0	0	0	0	0	0	0	2442	2.61	mg/L		0.00000
244	Tryptophan C3-C11_TMS 3_m5	Target	1	207.00	25.445	25.427	25.460	1.170	168	143	0.00259	Auto	1585	25.460	Default	0	0	0	0	0	0	79.37	0.00	0.00	17	73.00	0	0	79.37	0.00	128.00	169	131	51.94	100.60	0	0	0	0	0	0	0	0	0	0	0	0	0	0	0	2442	0.78	mg/L		0.00000
245	Tryptophan C3-C11_TMS 3_m6	Target	1	208.00	25.460	25.447	25.477	1.140	67	59	0.00103	Auto	1593	25.460	Default	0	0	0	0	0	0	79.37	0.00	0.00	16	73.00	0	0	79.37	0.00	128.00	0	0	51.94	0.00	0	0	0	0	0	0	0	0	0	0	0	0	0	0	0	2443	0.68	mg/L		0.00000
246	Tryptophan C3-C11_TMS 3_m7	Target	1	209.00	25.478	25.457	25.520	2.030	140	69	0.00216	Auto	1603	25.460	Default	0	0	0	0	0	0	79.37	0.00	0.00	10	73.00	0	0	79.37	0.00	128.00	42	40	51.94	30.00	0	0	0	0	0	0	0	0	0	0	0	0	0	0	0	2445	4.52	mg/L		0.00000
247	Tryptophan C3-C11_TMS 3_m8	Target	1	210.00	25.474	25.453	25.490	1.320	90	68	0.00139	Auto	1612	25.460	Default	0	0	0	0	0	0	79.37	0.00	0.00	14	73.00	0	0	79.37	0.00	128.00	42	40	51.94	46.67	0	0	0	0	0	0	0	0	0	0	0	0	0	0	0	2444	9.07	mg/L		0.00000
248	Tryptophan C3-C11_TMS 3_m9	Target	1	211.00	25.453	25.430	25.470	1.450	87	60	0.00134	Auto	1620	25.460	Default	0	0	0	0	0	0	79.37	0.00	0.00	11	73.00	0	0	79.37	0.00	128.00	169	131	51.94	194.25	0	0	0	0	0	0	0	0	0	0	0	0	0	0	0	2443	7.50	mg/L		0.00000
249	Sucrose (C1-C6gluc and fruc)_TMS 8_m0	Target	1	361.00	30.587	30.573	30.600	1.290	31	24	0.00048	Auto	1629	30.580	Default	0	0	0	0	0	0	52.09	0.00	0.00	8	73.00	0	0	52.09	0.00	362.00	101	44	30.56	325.81	0	0	0	0	0	0	0	0	0	0	0	0	0	0	0	2961	2.40	mg/L		0.00000
250	Sucrose (C1-C6gluc and fruc)_TMS 8_m1	Target	1	362.00	30.590	30.563	30.610	2.300	101	44	0.00156	Auto	1638	30.580	Default	0	0	0	0	0	0	52.09	0.00	0.00	9	73.00	0	0	52.09	0.00	362.00	101	44	30.56	100.00	0	0	0	0	0	0	0	0	0	0	0	0	0	0	0	2962	9.26	mg/L		0.00000
251	Sucrose (C1-C6gluc and fruc)_TMS 8_m2	Target	1	363.00	30.567	30.537	30.583	2.110	76	36	0.00117	Auto	1646	30.580	Default	0	0	0	0	0	0	52.09	0.00	0.00	12	73.00	0	0	52.09	0.00	362.00	61	44	30.56	80.26	0	0	0	0	0	0	0	0	0	0	0	0	0	0	0	2960	2.36	mg/L		0.00000
252	Sucrose (C1-C6gluc and fruc)_TMS 8_m3	Target	1	364.00	30.591	30.560	30.627	2.230	78	35	0.00120	Auto	1654	30.580	Default	0	0	0	0	0	0	52.09	0.00	0.00	8	73.00	0	0	52.09	0.00	362.00	101	44	30.56	129.49	0	0	0	0	0	0	0	0	0	0	0	0	0	0	0	2962	2.49	mg/L		0.00000
253	Sucrose (C1-C6gluc and fruc)_TMS 8_m4	Target	1	365.00	30.597	30.583	30.613	0.840	16	19	0.00025	Auto	1661	30.580	Default	0	0	0	0	0	0	52.09	0.00	0.00	5	73.00	0	0	52.09	0.00	362.00	101	44	30.56	631.25	0	0	0	0	0	0	0	0	0	0	0	0	0	0	0	2962	1.19	mg/L		0.00000
254	Sucrose (C1-C6gluc and fruc)_TMS 8_m5	Target	1	366.00	30.582	30.557	30.613	2.280	91	40	0.00140	Auto	1668	30.580	Default	0	0	0	0	0	0	52.09	0.00	0.00	11	73.00	0	0	52.09	0.00	362.00	101	44	30.56	110.99	0	0	0	0	0	0	0	0	0	0	0	0	0	0	0	2961	7.69	mg/L		0.00000
255	Sucrose (C1-C6gluc and fruc)_TMS 8_m6	Target	1	367.00	30.615	30.593	30.633	1.620	47	29	0.00072	Auto	1675	30.580	Default	0	0	0	0	0	0	52.09	0.00	0.00	9	73.00	0	0	52.09	0.00	362.00	84	33	30.56	178.72	0	0	0	0	0	0	0	0	0	0	0	0	0	0	0	2964	3.32	mg/L		0.00000
256	Sucrose (C1-C6fructose)_TMS 8_m0	Target	1	451.00	30.594	30.570	30.620	1.680	67	40	0.00103	Auto	1682	30.580	Default	0	0	0	0	0	0	52.09	0.00	0.00	6	73.00	0	0	52.09	0.00	362.00	101	44	30.56	150.75	0	0	0	0	0	0	0	0	0	0	0	0	0	0	0	2962	2.19	mg/L		0.00000
257	Sucrose (C1-C6fructose)_TMS 8_m1	Target	1	452.00	30.586	30.567	30.607	1.300	48	37	0.00074	Auto	1690	30.580	Default	0	0	0	0	0	0	52.09	0.00	0.00	11	73.00	0	0	52.09	0.00	362.00	101	44	30.56	210.42	0	0	0	0	0	0	0	0	0	0	0	0	0	0	0	2961	8.22	mg/L		0.00000
258	Sucrose (C1-C6fructose)_TMS 8_m2	Target	1	453.00	30.580	30.567	30.593	1.110	10	9	0.00015	Auto	1699	30.580	Default	0	0	0	0	0	0	52.09	0.00	0.00	8	73.00	0	0	52.09	0.00	362.00	101	44	30.56	1010.00	0	0	0	0	0	0	0	0	0	0	0	0	0	0	0	2961	1.55	mg/L		0.00000
259	Sucrose (C1-C6fructose)_TMS 8_m3	Target	1	454.00	30.595	30.547	30.640	2.710	222	82	0.00342	Auto	1706	30.580	Default	0	0	0	0	0	0	52.09	0.00	0.00	6	73.00	0	0	52.09	0.00	362.00	101	44	30.56	45.49	0	0	0	0	0	0	0	0	0	0	0	0	0	0	0	2962	3.14	mg/L		0.00000
260	Sucrose (C1-C6fructose)_TMS 8_m4	Target	1	455.00	30.593	30.583	30.613	1.150	15	13	0.00023	Auto	1712	30.580	Default	0	0	0	0	0	0	52.09	0.00	0.00	5	73.00	0	0	52.09	0.00	362.00	101	44	30.56	673.33	0	0	0	0	0	0	0	0	0	0	0	0	0	0	0	2962	0.68	mg/L		0.00000
261	Sucrose (C1-C6fructose)_TMS 8_m5	Target	1	456.00	30.592	30.573	30.620	1.610	45	28	0.00069	Auto	1720	30.580	Default	0	0	0	0	0	0	52.09	0.00	0.00	10	73.00	0	0	52.09	0.00	362.00	101	44	30.56	224.44	0	0	0	0	0	0	0	0	0	0	0	0	0	0	0	2962	0.96	mg/L		0.00000
262	Sucrose (C1-C6fructose)_TMS 8_m6	Target	1	457.00	30.587	30.567	30.607	1.240	42	34	0.00065	Auto	1727	30.580	Default	0	0	0	0	0	0	52.09	0.00	0.00	11	73.00	0	0	52.09	0.00	362.00	101	44	30.56	240.48	0	0	0	0	0	0	0	0	0	0	0	0	0	0	0	2961	4.25	mg/L		0.00000

