[Header]
Data File Name	C:\Users\ydellero\Desktop\Projets CR\P2M2\TQD\210510_13C_Younes\13CPROT4.qgd
Output Date	23/08/2021
Output Time	14:10:14

[MS Quantitative Results]
# of IDs	262
ID#	Name	Type	ISTD Group#	Mass	Ret.Time	Start Time	End Time	A/H	Area	Height	Conc.	Mode	Peak#	Std.Ret.Time	Calibration Curve	3rd	2nd	1st	Constant	Ref.Ion Area	Ref.Ion Height	Ref.Ion Set Ratio	Ref.Ion Ratio	Recovery	SI	Ref.Ion1 m/z	Ref.Ion1 Area	Ref.Ion1 Height	Ref.Ion1 Set Ratio	Ref.Ion1 Ratio	Ref.Ion2 m/z	Ref.Ion2 Area	Ref.Ion2 Height	Ref.Ion2 Set Ratio	Ref.Ion2 Ratio	Ref.Ion3 m/z	Ref.Ion3 Area	Ref.Ion3 Height	Ref.Ion3 Set Ratio	Ref.Ion3 Ratio	Ref.Ion4 m/z	Ref.Ion4 Area	Ref.Ion4 Height	Ref.Ion4 Set Ratio	Ref.Ion4 Ratio	Ref.Ion5 m/z	Ref.Ion5 Area	Ref.Ion5 Height	Ref.Ion5 Set Ratio	Ref.Ion5 Ratio	Ret. Index	S/N	Unit	Description	Threshold
1	Glyoxylate (1MEOX) (1TMS )m0	Target	1	160.00	6.375	6.340	6.403	2.050	39	19	0.00082	Auto	1	6.400	Default	0	0	0	0	323	289	84.50	828.21	0.00	14	73.00	323	289	84.50	828.21	59.00	17	20	49.59	43.59	0	0	0	0	0	0	0	0	0	0	0	0	0	0	0	1216	0.70	mg/L		0.00000
2	Glyoxylate (1MEOX) (1TMS )m1	Target	1	161.00	6.407	6.380	6.440	2.080	79	38	0.00167	Auto	13	6.400	Default	0	0	0	0	225	190	84.50	284.81	0.00	17	73.00	225	190	84.50	284.81	59.00	187	171	49.59	236.71	0	0	0	0	0	0	0	0	0	0	0	0	0	0	0	1218	12.67	mg/L		0.00000
3	Glyoxylate (1MEOX) (1TMS )m2	Target	1	162.00	6.407	6.373	6.423	1.700	68	40	0.00144	Auto	25	6.400	Default	0	0	0	0	225	190	84.50	330.88	0.00	19	73.00	225	190	84.50	330.88	59.00	187	171	49.59	275.00	0	0	0	0	0	0	0	0	0	0	0	0	0	0	0	1218	12.00	mg/L		0.00000
4	Pyruvate(1MEOX)(1TMS) C1-C3 m0	Target	1	174.00	7.212	7.187	7.230	1.410	178	126	0.00376	Auto	39	7.218	Default	0	0	0	0	629	519	79.37	353.37	0.00	26	73.00	629	519	79.37	353.37	128.00	83	49	51.94	46.63	0	0	0	0	0	0	0	0	0	0	0	0	0	0	0	1258	8.84	mg/L		0.00000
5	Pyruvate(1MEOX)(1TMS) C1-C3 m1	Target	1	175.00	7.227	7.217	7.253	1.100	32	29	0.00068	Auto	50	7.218	Default	0	0	0	0	629	519	79.37	1965.63	0.00	6	73.00	629	519	79.37	1965.63	128.00	82	45	51.94	256.25	0	0	0	0	0	0	0	0	0	0	0	0	0	0	0	1259	0.73	mg/L		0.00000
6	Pyruvate(1MEOX)(1TMS) C1-C3 m2	Target	1	176.00	7.230	7.203	7.240	1.710	12	7	0.00025	Auto	60	7.218	Default	0	0	0	0	0	0	79.37	0.00	0.00	7	73.00	0	0	79.37	0.00	128.00	82	45	51.94	683.33	0	0	0	0	0	0	0	0	0	0	0	0	0	0	0	1259	0.22	mg/L		0.00000
7	Pyruvate(1MEOX)(1TMS) C1-C3 m3	Target	1	177.00	7.226	7.200	7.247	1.440	104	72	0.00220	Auto	72	7.218	Default	0	0	0	0	629	519	79.37	604.81	0.00	9	73.00	629	519	79.37	604.81	128.00	82	45	51.94	78.85	0	0	0	0	0	0	0	0	0	0	0	0	0	0	0	1259	8.00	mg/L		0.00000
8	Glycolate(2TMS) m0	Target	1	205.00	8.231	8.180	8.260	1.600	945	591	0.01995	Auto	84	8.227	Default	0	0	0	0	0	0	84.87	0.00	0.00	55	73.00	0	0	84.87	0.00	177.00	52	41	21.52	5.50	0	0	0	0	0	0	0	0	0	0	0	0	0	0	0	1310	78.80	mg/L		0.00000
9	Glycolate(2TMS) m1	Target	1	206.00	8.220	8.180	8.227	1.440	169	117	0.00357	Auto	92	8.227	Default	0	0	0	0	0	0	84.87	0.00	0.00	13	73.00	0	0	84.87	0.00	177.00	52	41	21.52	30.77	0	0	0	0	0	0	0	0	0	0	0	0	0	0	0	1309	6.40	mg/L		0.00000
10	Glycolate(2TMS) m2	Target	1	207.00	8.214	8.190	8.233	1.370	302	220	0.00638	Auto	101	8.227	Default	0	0	0	0	0	0	84.87	0.00	0.00	13	73.00	0	0	84.87	0.00	177.00	52	41	21.52	17.22	0	0	0	0	0	0	0	0	0	0	0	0	0	0	0	1309	9.26	mg/L		0.00000
11	Alaninealpha(2TMS) C2-C3 m0	Target	1	116.00	8.251	8.190	8.313	1.970	100684	51163	2.12603	Auto	110	8.253	Default	0	0	0	0	100684	51163	81.17	100.00	0.00	74	116.00	100684	51163	81.17	100.00	73.00	202316	100896	49.13	200.94	0	0	0	0	0	0	0	0	0	0	0	0	0	0	0	1311	589.31	mg/L		0.00000
12	Alaninealpha(2TMS) C2-C3 m1	Target	1	117.00	8.250	8.197	8.340	1.930	197963	102677	4.18017	Auto	116	8.253	Default	0	0	0	0	100684	51163	81.17	50.86	0.00	74	116.00	100684	51163	81.17	50.86	73.00	202316	100896	49.13	102.20	0	0	0	0	0	0	0	0	0	0	0	0	0	0	0	1311	2535.23	mg/L		0.00000
13	Alaninealpha(2TMS) C2-C3 m2	Target	1	118.00	8.250	8.203	8.320	1.960	110242	56263	2.32786	Auto	122	8.253	Default	0	0	0	0	100684	51163	81.17	91.33	0.00	74	116.00	100684	51163	81.17	91.33	73.00	202316	100896	49.13	183.52	0	0	0	0	0	0	0	0	0	0	0	0	0	0	0	1311	695.56	mg/L		0.00000
14	Valine(2TMS) C1-C2 m0	Target	1	218.00	10.237	10.173	10.280	1.900	9424	4962	0.19900	Auto	128	10.237	Default	0	0	0	0	171556	87815	45.40	1820.42	0.00	66	73.00	171556	87815	45.40	1820.42	145.00	79660	41491	14.31	845.29	0	0	0	0	0	0	0	0	0	0	0	0	0	0	0	1426	1417.71	mg/L		0.00000
15	Valine(2TMS) C1-C2 m1	Target	1	219.00	10.235	10.190	10.287	2.000	20169	10085	0.42589	Auto	136	10.237	Default	0	0	0	0	171556	87815	45.40	850.59	0.00	66	73.00	171556	87815	45.40	850.59	145.00	79660	41491	14.31	394.96	0	0	0	0	0	0	0	0	0	0	0	0	0	0	0	1426	775.77	mg/L		0.00000
16	Valine(2TMS) C1-C2 m2	Target	1	220.00	10.235	10.190	10.287	2.150	14002	6514	0.29566	Auto	144	10.237	Default	0	0	0	0	171556	87815	45.40	1225.22	0.00	66	73.00	171556	87815	45.40	1225.22	145.00	79660	41491	14.31	568.92	0	0	0	0	0	0	0	0	0	0	0	0	0	0	0	1426	188.81	mg/L		0.00000
17	Valine(2TMS) C2-C5 m0	Target	1	144.00	10.235	10.187	10.310	1.980	23667	11946	0.49975	Auto	152	10.237	Default	0	0	0	0	171556	87815	45.40	724.87	0.00	66	73.00	171556	87815	45.40	724.87	145.00	79660	41491	14.31	336.59	0	0	0	0	0	0	0	0	0	0	0	0	0	0	0	1426	1111.26	mg/L		0.00000
18	Valine(2TMS) C2-C5 m1	Target	1	145.00	10.236	10.183	10.290	1.920	79660	41491	1.68209	Auto	158	10.237	Default	0	0	0	0	171556	87815	45.40	215.36	0.00	66	73.00	171556	87815	45.40	215.36	145.00	79660	41491	14.31	100.00	0	0	0	0	0	0	0	0	0	0	0	0	0	0	0	1426	3798.47	mg/L		0.00000
19	Valine(2TMS) C2-C5 m2	Target	1	146.00	10.234	10.187	10.287	1.930	127604	66178	2.69447	Auto	167	10.237	Default	0	0	0	0	171556	87815	45.40	134.44	0.00	66	73.00	171556	87815	45.40	134.44	145.00	79660	41491	14.31	62.43	0	0	0	0	0	0	0	0	0	0	0	0	0	0	0	1426	5514.83	mg/L		0.00000
20	Valine(2TMS) C2-C5 m3	Target	1	147.00	10.235	10.167	10.287	1.930	127765	66169	2.69787	Auto	174	10.237	Default	0	0	0	0	171556	87815	45.40	134.28	0.00	66	73.00	171556	87815	45.40	134.28	145.00	79660	41491	14.31	62.35	0	0	0	0	0	0	0	0	0	0	0	0	0	0	0	1426	4135.56	mg/L		0.00000
21	Valine(2TMS) C2-C5 m4	Target	1	148.00	10.234	10.187	10.313	1.890	37526	19895	0.79240	Auto	182	10.237	Default	0	0	0	0	171556	87815	45.40	457.17	0.00	67	73.00	171556	87815	45.40	457.17	145.00	79660	41491	14.31	212.28	0	0	0	0	0	0	0	0	0	0	0	0	0	0	0	1426	265.27	mg/L		0.00000
22	Serine (2TMS) C2-C3 m0	Target	1	132.00	10.859	10.817	10.907	2.150	5547	2579	0.11713	Auto	190	10.860	Default	0	0	0	0	22143	11451	83.67	399.19	0.00	73	73.00	22143	11451	83.67	399.19	132.00	5547	2579	71.11	100.00	0	0	0	0	0	0	0	0	0	0	0	0	0	0	0	1465	43.29	mg/L		0.00000
23	Serine (2TMS) C2-C3 m1	Target	1	133.00	10.857	10.820	10.940	1.890	12217	6478	0.25797	Auto	199	10.860	Default	0	0	0	0	22143	11451	83.67	181.25	0.00	73	73.00	22143	11451	83.67	181.25	132.00	5547	2579	71.11	45.40	0	0	0	0	0	0	0	0	0	0	0	0	0	0	0	1465	303.66	mg/L		0.00000
24	Serine (2TMS) C2-C3 m2	Target	1	134.00	10.858	10.810	10.933	1.950	8751	4477	0.18479	Auto	207	10.860	Default	0	0	0	0	22143	11451	83.67	253.03	0.00	74	73.00	22143	11451	83.67	253.03	132.00	5547	2579	71.11	63.39	0	0	0	0	0	0	0	0	0	0	0	0	0	0	0	1465	210.68	mg/L		0.00000
25	Serine (2TMS) C2-C3 m0	Target	1	116.00	10.859	10.820	10.903	1.930	6544	3395	0.13818	Auto	214	10.860	Default	0	0	0	0	22143	11451	83.67	338.37	0.00	73	73.00	22143	11451	83.67	338.37	132.00	5547	2579	71.11	84.77	0	0	0	0	0	0	0	0	0	0	0	0	0	0	0	1465	377.22	mg/L		0.00000
26	Serine (2TMS) C2-C3 m1	Target	1	117.00	10.857	10.817	10.927	2.250	13616	6049	0.28751	Auto	222	10.860	Default	0	0	0	0	22143	11451	83.67	162.63	0.00	72	73.00	22143	11451	83.67	162.63	132.00	5547	2579	71.11	40.74	0	0	0	0	0	0	0	0	0	0	0	0	0	0	0	1465	147.54	mg/L		0.00000
27	Serine (2TMS) C2-C3 m2	Target	1	118.00	10.859	10.820	10.900	1.970	7820	3964	0.16513	Auto	228	10.860	Default	0	0	0	0	22143	11451	83.67	283.16	0.00	74	73.00	22143	11451	83.67	283.16	132.00	5547	2579	71.11	70.93	0	0	0	0	0	0	0	0	0	0	0	0	0	0	0	1465	140.14	mg/L		0.00000
28	Leucine(2TMS) C2-C6 m0	Target	1	158.00	11.120	11.077	11.177	1.800	15199	8463	0.32094	Auto	236	11.123	Default	0	0	0	0	159552	87806	35.13	1049.75	0.00	52	73.00	159552	87806	35.13	1049.75	102.00	35908	19155	13.54	236.25	0	0	0	0	0	0	0	0	0	0	0	0	0	0	0	1482	128.23	mg/L		0.00000
29	Leucine(2TMS) C2-C6 m1	Target	1	159.00	11.120	11.073	11.183	1.860	70074	37649	1.47968	Auto	244	11.123	Default	0	0	0	0	159552	87806	35.13	227.69	0.00	53	73.00	159552	87806	35.13	227.69	102.00	35908	19155	13.54	51.24	0	0	0	0	0	0	0	0	0	0	0	0	0	0	0	1482	5792.15	mg/L		0.00000
30	Leucine(2TMS) C2-C6 m2	Target	1	160.00	11.120	11.067	11.170	1.880	133082	70755	2.81015	Auto	251	11.123	Default	0	0	0	0	159552	87806	35.13	119.89	0.00	51	73.00	159552	87806	35.13	119.89	102.00	35908	19155	13.54	26.98	0	0	0	0	0	0	0	0	0	0	0	0	0	0	0	1482	6289.33	mg/L		0.00000
31	Leucine(2TMS) C2-C6 m3	Target	1	161.00	11.119	11.067	11.210	1.920	141197	73637	2.98150	Auto	259	11.123	Default	0	0	0	0	159552	87806	35.13	113.00	0.00	54	73.00	159552	87806	35.13	113.00	102.00	35908	19155	13.54	25.43	0	0	0	0	0	0	0	0	0	0	0	0	0	0	0	1482	4207.83	mg/L		0.00000
32	Leucine(2TMS) C2-C6 m4	Target	1	162.00	11.118	11.070	11.177	1.860	80506	43262	1.69996	Auto	267	11.123	Default	0	0	0	0	159552	87806	35.13	198.19	0.00	51	73.00	159552	87806	35.13	198.19	102.00	35908	19155	13.54	44.60	0	0	0	0	0	0	0	0	0	0	0	0	0	0	0	1482	760.89	mg/L		0.00000
33	Leucine(2TMS) C2-C6 m5	Target	1	163.00	11.116	11.073	11.153	1.800	23052	12828	0.48676	Auto	273	11.123	Default	0	0	0	0	159552	87806	35.13	692.14	0.00	51	73.00	159552	87806	35.13	692.14	102.00	35908	19155	13.54	155.77	0	0	0	0	0	0	0	0	0	0	0	0	0	0	0	1482	471.62	mg/L		0.00000
34	Isoleucine(2TMS) C2-C6 m0	Target	1	158.00	11.453	11.387	11.493	1.910	8314	4346	0.17556	Auto	282	11.456	Default	0	0	0	0	651	369	14.72	7.83	0.00	35	69.00	651	369	14.72	7.83	75.00	39138	13755	14.53	470.75	0	0	0	0	0	0	0	0	0	0	0	0	0	0	0	1504	1448.67	mg/L		0.00000
35	Isoleucine(2TMS) C2-C6 m1	Target	1	159.00	11.452	11.407	11.503	1.850	37995	20533	0.80230	Auto	289	11.456	Default	0	0	0	0	651	369	14.72	1.71	0.00	36	69.00	651	369	14.72	1.71	75.00	39138	13755	14.53	103.01	0	0	0	0	0	0	0	0	0	0	0	0	0	0	0	1503	622.21	mg/L		0.00000
36	Isoleucine(2TMS) C2-C6 m2	Target	1	160.00	11.451	11.407	11.510	1.860	74381	40022	1.57062	Auto	296	11.456	Default	0	0	0	0	651	369	14.72	0.88	0.00	36	69.00	651	369	14.72	0.88	75.00	39138	13755	14.53	52.62	0	0	0	0	0	0	0	0	0	0	0	0	0	0	0	1503	154.87	mg/L		0.00000
37	Isoleucine(2TMS) C2-C6 m3	Target	1	161.00	11.451	11.410	11.507	1.910	75483	39582	1.59389	Auto	302	11.456	Default	0	0	0	0	651	369	14.72	0.86	0.00	36	69.00	651	369	14.72	0.86	75.00	39138	13755	14.53	51.85	0	0	0	0	0	0	0	0	0	0	0	0	0	0	0	1503	678.55	mg/L		0.00000
38	Isoleucine(2TMS) C2-C6 m4	Target	1	162.00	11.450	11.407	11.497	1.880	43131	22985	0.91075	Auto	308	11.456	Default	0	0	0	0	651	369	14.72	1.51	0.00	35	69.00	651	369	14.72	1.51	75.00	39138	13755	14.53	90.74	0	0	0	0	0	0	0	0	0	0	0	0	0	0	0	1503	335.06	mg/L		0.00000
39	Isoleucine(2TMS) C2-C6 m5	Target	1	163.00	11.450	11.407	11.500	1.880	13295	7056	0.28074	Auto	315	11.456	Default	0	0	0	0	651	369	14.72	4.90	0.00	36	69.00	651	369	14.72	4.90	75.00	39138	13755	14.53	294.38	0	0	0	0	0	0	0	0	0	0	0	0	0	0	0	1503	940.80	mg/L		0.00000
40	Proline(2TMS) C2-C5 m0	Target	1	142.00	11.478	11.417	11.527	1.910	12218	6404	0.25799	Auto	322	11.482	Default	0	0	0	0	0	0	37.07	0.00	0.00	56	73.00	0	0	37.07	0.00	143.00	50575	25038	11.49	413.94	0	0	0	0	0	0	0	0	0	0	0	0	0	0	0	1505	533.67	mg/L		0.00000
41	Proline(2TMS) C2-C5 m1	Target	1	143.00	11.478	11.413	11.527	2.020	50575	25038	1.06794	Auto	327	11.482	Default	0	0	0	0	0	0	37.07	0.00	0.00	56	73.00	0	0	37.07	0.00	143.00	50575	25038	11.49	100.00	0	0	0	0	0	0	0	0	0	0	0	0	0	0	0	1505	365.81	mg/L		0.00000
42	Proline(2TMS) C2-C5 m2	Target	1	144.00	11.478	11.417	11.537	1.890	72556	38401	1.53209	Auto	332	11.482	Default	0	0	0	0	0	0	37.07	0.00	0.00	55	73.00	0	0	37.07	0.00	143.00	50575	25038	11.49	69.70	0	0	0	0	0	0	0	0	0	0	0	0	0	0	0	1505	1371.46	mg/L		0.00000
43	Proline(2TMS) C2-C5 m3	Target	1	145.00	11.477	11.420	11.533	1.940	53602	27636	1.13185	Auto	337	11.482	Default	0	0	0	0	0	0	37.07	0.00	0.00	56	73.00	0	0	37.07	0.00	143.00	50575	25038	11.49	94.35	0	0	0	0	0	0	0	0	0	0	0	0	0	0	0	1505	316.10	mg/L		0.00000
44	Proline(2TMS) C2-C5 m4	Target	1	146.00	11.475	11.410	11.573	2.260	24429	10801	0.51584	Auto	341	11.482	Default	0	0	0	0	0	0	37.07	0.00	0.00	55	73.00	0	0	37.07	0.00	143.00	50575	25038	11.49	207.03	0	0	0	0	0	0	0	0	0	0	0	0	0	0	0	1505	134.17	mg/L		0.00000
45	Glycine (3TMS) C2 m0	Target	1	174.00	11.636	11.583	11.720	1.900	297531	156864	6.28264	Auto	346	11.636	Default	0	0	0	0	310271	159583	39.86	104.28	0.00	82	73.00	310271	159583	39.86	104.28	147.00	158992	82009	29.10	53.44	0	0	0	0	0	0	0	0	0	0	0	0	0	0	0	1516	3337.53	mg/L		0.00000
46	Glycine (3TMS) C2 m1	Target	1	175.00	11.636	11.580	11.693	1.870	332314	177498	7.01711	Auto	353	11.636	Default	0	0	0	0	310271	159583	39.86	93.37	0.00	82	73.00	310271	159583	39.86	93.37	147.00	158992	82009	29.10	47.84	0	0	0	0	0	0	0	0	0	0	0	0	0	0	0	1516	12033.76	mg/L		0.00000
47	Succinate(2TMS) C1-C4 m0	Target	1	247.00	11.634	11.590	11.723	2.210	4460	2014	0.09418	Auto	360	11.683	Default	0	0	0	0	308357	159241	36.65	6913.83	0.00	54	73.00	308357	159241	36.65	6913.83	148.00	24326	12816	16.10	545.43	0	0	0	0	0	0	0	0	0	0	0	0	0	0	0	1516	223.78	mg/L		0.00000
48	Succinate(2TMS) C1-C4 m1	Target	1	248.00	11.707	11.687	11.743	2.300	297	129	0.00627	Auto	368	11.683	Default	0	0	0	0	0	0	36.65	0.00	0.00	13	73.00	0	0	36.65	0.00	148.00	0	0	16.10	0.00	0	0	0	0	0	0	0	0	0	0	0	0	0	0	0	1521	48.37	mg/L		0.00000
49	Succinate(2TMS) C1-C4 m2	Target	1	249.00	11.637	11.587	11.713	1.900	58164	30597	1.22819	Auto	375	11.683	Default	0	0	0	0	308357	159241	36.65	530.15	0.00	54	73.00	308357	159241	36.65	530.15	148.00	24326	12816	16.10	41.82	0	0	0	0	0	0	0	0	0	0	0	0	0	0	0	1516	9179.10	mg/L		0.00000
50	Succinate(2TMS) C1-C4 m3	Target	1	250.00	11.710	11.700	11.730	0.660	27	41	0.00057	Auto	383	11.683	Default	0	0	0	0	0	0	36.65	0.00	0.00	13	73.00	0	0	36.65	0.00	148.00	0	0	16.10	0.00	0	0	0	0	0	0	0	0	0	0	0	0	0	0	0	1522	3.42	mg/L		0.00000
51	Succinate(2TMS) C1-C4 m4	Target	1	251.00	11.707	11.683	11.727	1.800	72	40	0.00152	Auto	391	11.683	Default	0	0	0	0	0	0	36.65	0.00	0.00	13	73.00	0	0	36.65	0.00	148.00	0	0	16.10	0.00	0	0	0	0	0	0	0	0	0	0	0	0	0	0	0	1521	12.00	mg/L		0.00000
52	Fumarate(2TMS) C1-C4 m0	Target	1	245.00	12.197	12.190	12.213	0.600	6	10	0.00013	Auto	399	12.183	Default	0	0	0	0	0	0	64.38	0.00	0.00	11	147.00	0	0	64.38	0.00	73.00	0	0	59.55	0.00	0	0	0	0	0	0	0	0	0	0	0	0	0	0	0	1556	0.03	mg/L		0.00000
53	Fumarate(2TMS) C1-C4 m1	Target	1	246.00	12.147	12.110	12.183	1.820	331	182	0.00699	Auto	406	12.151	Default	0	0	0	0	243	350	64.38	73.41	0.00	44	147.00	243	350	64.38	73.41	73.00	908	614	59.55	274.32	0	0	0	0	0	0	0	0	0	0	0	0	0	0	0	1552	12.01	mg/L		0.00000
54	Fumarate(2TMS) C1-C4 m2	Target	1	247.00	12.150	12.127	12.207	1.530	225	147	0.00475	Auto	412	12.151	Default	0	0	0	0	243	350	64.38	108.00	0.00	54	147.00	243	350	64.38	108.00	73.00	908	614	59.55	403.56	0	0	0	0	0	0	0	0	0	0	0	0	0	0	0	1553	53.45	mg/L		0.00000
55	Fumarate(2TMS) C1-C4 m3	Target	1	248.00	12.140	12.123	12.153	1.450	29	20	0.00061	Auto	418	12.151	Default	0	0	0	0	243	350	64.38	837.93	0.00	28	147.00	243	350	64.38	837.93	73.00	908	614	59.55	3131.03	0	0	0	0	0	0	0	0	0	0	0	0	0	0	0	1552	1.11	mg/L		0.00000
56	Fumarate(2TMS) C1-C4 m4	Target	1	249.00	12.173	12.150	12.193	1.650	43	26	0.00091	Auto	427	12.151	Default	0	0	0	0	0	0	64.38	0.00	0.00	16	147.00	0	0	64.38	0.00	73.00	0	0	59.55	0.00	0	0	0	0	0	0	0	0	0	0	0	0	0	0	0	1554	0.70	mg/L		0.00000
57	Serine(3TMS) C2-C3 m0	Target	1	204.00	12.453	12.400	12.500	1.820	20154	11064	0.42557	Auto	433	12.450	Default	0	0	0	0	94437	49413	90.43	468.58	0.00	75	73.00	94437	49413	90.43	468.58	218.00	11249	5704	48.65	55.81	0	0	0	0	0	0	0	0	0	0	0	0	0	0	0	1574	402.33	mg/L		0.00000
58	Serine(3TMS) C2-C3 m1	Target	1	205.00	12.453	12.407	12.523	1.880	46036	24492	0.97209	Auto	440	12.450	Default	0	0	0	0	94437	49413	90.43	205.14	0.00	74	73.00	94437	49413	90.43	205.14	218.00	11249	5704	48.65	24.43	0	0	0	0	0	0	0	0	0	0	0	0	0	0	0	1574	1689.10	mg/L		0.00000
59	Serine(3TMS) C2-C3 m2	Target	1	206.00	12.452	12.400	12.503	1.860	26709	14377	0.56398	Auto	448	12.450	Default	0	0	0	0	94437	49413	90.43	353.58	0.00	76	73.00	94437	49413	90.43	353.58	218.00	11249	5704	48.65	42.12	0	0	0	0	0	0	0	0	0	0	0	0	0	0	0	1574	2875.40	mg/L		0.00000
60	Serine(3TMS) C1-C2 m0	Target	1	218.00	12.450	12.403	12.520	1.970	11249	5704	0.23753	Auto	456	12.450	Default	0	0	0	0	94437	49413	90.43	839.51	0.00	75	73.00	94437	49413	90.43	839.51	218.00	11249	5704	48.65	100.00	0	0	0	0	0	0	0	0	0	0	0	0	0	0	0	1574	1247.75	mg/L		0.00000
61	Serine(3TMS) C1-C2 m1	Target	1	219.00	12.452	12.413	12.540	1.890	25075	13265	0.52948	Auto	463	12.450	Default	0	0	0	0	94437	49413	90.43	376.62	0.00	75	73.00	94437	49413	90.43	376.62	218.00	11249	5704	48.65	44.86	0	0	0	0	0	0	0	0	0	0	0	0	0	0	0	1574	1275.48	mg/L		0.00000
62	Serine(3TMS) C1-C2 m2	Target	1	220.00	12.451	12.407	12.490	1.850	13109	7073	0.27681	Auto	470	12.450	Default	0	0	0	0	94437	49413	90.43	720.40	0.00	75	73.00	94437	49413	90.43	720.40	218.00	11249	5704	48.65	85.81	0	0	0	0	0	0	0	0	0	0	0	0	0	0	0	1574	266.02	mg/L		0.00000
63	Glycerate(3TMS) C1-C3 m0	Target	1	307.00	12.463	12.420	12.513	2.330	706	303	0.01491	Auto	477	12.500	Default	0	0	0	0	19417	11856	69.46	2750.28	0.00	67	147.00	19417	11856	69.46	2750.28	189.00	5962	4071	46.63	844.48	0	0	0	0	0	0	0	0	0	0	0	0	0	0	0	1575	75.75	mg/L		0.00000
64	Glycerate(3TMS) C1-C3 m1	Target	1	308.00	12.549	12.530	12.560	1.210	17	14	0.00036	Auto	487	12.500	Default	0	0	0	0	539	326	69.46	3170.59	0.00	23	147.00	539	326	69.46	3170.59	189.00	0	0	46.63	0.00	0	0	0	0	0	0	0	0	0	0	0	0	0	0	0	1581	1.13	mg/L		0.00000
65	Glycerate(3TMS) C1-C3 m2	Target	1	309.00	12.497	12.483	12.513	0.870	53	61	0.00112	Auto	496	12.500	Default	0	0	0	0	94	117	69.46	177.36	0.00	15	147.00	94	117	69.46	177.36	189.00	0	0	46.63	0.00	0	0	0	0	0	0	0	0	0	0	0	0	0	0	0	1577	21.22	mg/L		0.00000
66	Glycerate(3TMS) C1-C3 m3	Target	1	310.00	12.503	12.490	12.520	1.130	79	70	0.00167	Auto	506	12.500	Default	0	0	0	0	94	117	69.46	118.99	0.00	15	147.00	94	117	69.46	118.99	189.00	83	52	46.63	105.06	0	0	0	0	0	0	0	0	0	0	0	0	0	0	0	1577	15.56	mg/L		0.00000
67	Glycerate(3TMS) C1-C2 m0	Target	1	292.00	12.513	12.490	12.547	1.850	48	26	0.00101	Auto	516	12.500	Default	0	0	0	0	94	117	69.46	195.83	0.00	25	147.00	94	117	69.46	195.83	189.00	83	52	46.63	172.92	0	0	0	0	0	0	0	0	0	0	0	0	0	0	0	1578	0.73	mg/L		0.00000
68	Glycerate(3TMS) C1-C2 m1	Target	1	293.00	12.519	12.500	12.537	1.240	31	25	0.00065	Auto	526	12.500	Default	0	0	0	0	94	117	69.46	303.23	0.00	30	147.00	94	117	69.46	303.23	189.00	83	52	46.63	267.74	0	0	0	0	0	0	0	0	0	0	0	0	0	0	0	1579	0.59	mg/L		0.00000
69	Glycerate(3TMS) C1-C2 m2	Target	1	294.00	12.502	12.467	12.520	2.060	70	34	0.00148	Auto	535	12.500	Default	0	0	0	0	94	117	69.46	134.29	0.00	2	147.00	94	117	69.46	134.29	189.00	0	0	46.63	0.00	0	0	0	0	0	0	0	0	0	0	0	0	0	0	0	1577	1.05	mg/L		0.00000
70	Threonine(3TMS) C1-C2 m0	Target	1	291.00	12.839	12.793	12.890	1.920	4635	2408	0.09787	Auto	545	12.840	Default	0	0	0	0	155243	83674	79.37	3349.36	0.00	47	73.00	155243	83674	79.37	3349.36	128.00	2799	1488	51.94	60.39	0	0	0	0	0	0	0	0	0	0	0	0	0	0	0	1601	481.60	mg/L		0.00000
71	Threonine(3TMS) C1-C2 m1	Target	1	292.00	12.838	12.783	12.903	1.740	12306	7061	0.25985	Auto	553	12.840	Default	0	0	0	0	155243	83674	79.37	1261.52	0.00	47	73.00	155243	83674	79.37	1261.52	128.00	2799	1488	51.94	22.75	0	0	0	0	0	0	0	0	0	0	0	0	0	0	0	1601	1008.71	mg/L		0.00000
72	Threonine(3TMS) C1-C2 m2	Target	1	293.00	12.835	12.793	12.883	1.880	11967	6367	0.25269	Auto	561	12.840	Default	0	0	0	0	155243	83674	79.37	1297.26	0.00	47	73.00	155243	83674	79.37	1297.26	128.00	2799	1488	51.94	23.39	0	0	0	0	0	0	0	0	0	0	0	0	0	0	0	1601	2387.62	mg/L		0.00000
73	Threonine(3TMS) C2-C4 m0	Target	1	218.00	12.837	12.787	12.903	1.750	9606	5497	0.20284	Auto	568	12.840	Default	0	0	0	0	155243	83674	79.37	1616.11	0.00	47	73.00	155243	83674	79.37	1616.11	128.00	2799	1488	51.94	29.14	0	0	0	0	0	0	0	0	0	0	0	0	0	0	0	1601	202.34	mg/L		0.00000
74	Threonine(3TMS) C2-C4 m1	Target	1	219.00	12.838	12.790	12.893	1.800	32537	18082	0.68705	Auto	576	12.840	Default	0	0	0	0	155243	83674	79.37	477.13	0.00	47	73.00	155243	83674	79.37	477.13	128.00	2799	1488	51.94	8.60	0	0	0	0	0	0	0	0	0	0	0	0	0	0	0	1601	27123.00	mg/L		0.00000
75	Threonine(3TMS) C2-C4 m2	Target	1	220.00	12.837	12.787	12.893	1.880	41173	21882	0.86941	Auto	584	12.840	Default	0	0	0	0	155243	83674	79.37	377.05	0.00	47	73.00	155243	83674	79.37	377.05	128.00	2799	1488	51.94	6.80	0	0	0	0	0	0	0	0	0	0	0	0	0	0	0	1601	9725.33	mg/L		0.00000
76	Threonine(3TMS) C2-C4 m3	Target	1	221.00	12.837	12.803	12.877	1.750	24778	14149	0.52321	Auto	591	12.840	Default	0	0	0	0	155243	83674	79.37	626.54	0.00	47	73.00	155243	83674	79.37	626.54	128.00	2799	1488	51.94	11.30	0	0	0	0	0	0	0	0	0	0	0	0	0	0	0	1601	85.11	mg/L		0.00000
77	Threonine(3TMS) C2-C4 m0	Target	1	291.00	12.839	12.793	12.890	1.920	4635	2408	0.09787	Auto	598	12.840	Default	0	0	0	0	155243	83674	79.37	3349.36	0.00	47	73.00	155243	83674	79.37	3349.36	128.00	2799	1488	51.94	60.39	0	0	0	0	0	0	0	0	0	0	0	0	0	0	0	1601	481.60	mg/L		0.00000
78	Threonine(3TMS) C2-C4 m1	Target	1	292.00	12.838	12.783	12.903	1.740	12306	7061	0.25985	Auto	606	12.840	Default	0	0	0	0	155243	83674	79.37	1261.52	0.00	47	73.00	155243	83674	79.37	1261.52	128.00	2799	1488	51.94	22.75	0	0	0	0	0	0	0	0	0	0	0	0	0	0	0	1601	1008.71	mg/L		0.00000
79	Threonine(3TMS) C2-C4 m2	Target	1	293.00	12.835	12.793	12.883	1.880	11967	6367	0.25269	Auto	614	12.840	Default	0	0	0	0	155243	83674	79.37	1297.26	0.00	47	73.00	155243	83674	79.37	1297.26	128.00	2799	1488	51.94	23.39	0	0	0	0	0	0	0	0	0	0	0	0	0	0	0	1601	2387.62	mg/L		0.00000
80	Threonine(3TMS) C2-C4 m3	Target	1	294.00	12.836	12.797	12.893	1.980	6912	3496	0.14595	Auto	622	12.840	Default	0	0	0	0	155243	83674	79.37	2245.99	0.00	47	73.00	155243	83674	79.37	2245.99	128.00	2799	1488	51.94	40.49	0	0	0	0	0	0	0	0	0	0	0	0	0	0	0	1601	699.20	mg/L		0.00000
81	Aspartate(2TMS) C2-C4 m0	Target	1	160.00	13.231	13.203	13.263	1.590	3684	2318	0.07779	Auto	629	13.250	Default	0	0	0	0	45271	19946	79.37	1228.86	0.00	48	73.00	45271	19946	79.37	1228.86	128.00	218	155	51.94	5.92	0	0	0	0	0	0	0	0	0	0	0	0	0	0	0	1631	16.85	mg/L		0.00000
82	Aspartate(2TMS) C2-C4 m1	Target	1	161.00	13.230	13.180	13.293	2.100	11554	5512	0.24397	Auto	637	13.250	Default	0	0	0	0	45271	19946	79.37	391.82	0.00	44	73.00	45271	19946	79.37	391.82	128.00	218	155	51.94	1.89	0	0	0	0	0	0	0	0	0	0	0	0	0	0	0	1631	27.67	mg/L		0.00000
83	Aspartate(2TMS) C2-C4 m2	Target	1	162.00	13.230	13.183	13.283	2.140	10843	5057	0.22896	Auto	645	13.250	Default	0	0	0	0	45271	19946	79.37	417.51	0.00	44	73.00	45271	19946	79.37	417.51	128.00	218	155	51.94	2.01	0	0	0	0	0	0	0	0	0	0	0	0	0	0	0	1631	130.78	mg/L		0.00000
84	Aspartate(2TMS) C2-C4 m3	Target	1	163.00	13.231	13.187	13.287	1.950	6576	3366	0.13886	Auto	653	13.250	Default	0	0	0	0	45271	19946	79.37	688.43	0.00	44	73.00	45271	19946	79.37	688.43	128.00	218	155	51.94	3.31	0	0	0	0	0	0	0	0	0	0	0	0	0	0	0	1631	151.62	mg/L		0.00000
85	Alaninebeta(3TMS) C1-C3 m0	Target	1	290.00	13.326	13.310	13.347	1.370	37	27	0.00078	Auto	663	13.317	Default	0	0	0	0	0	0	81.17	0.00	0.00	31	116.00	0	0	81.17	0.00	73.00	643	333	49.13	1737.84	0	0	0	0	0	0	0	0	0	0	0	0	0	0	0	1638	3.32	mg/L		0.00000
86	Alaninebeta(3TMS) C1-C3 m1	Target	1	291.00	13.309	13.260	13.337	2.210	338	153	0.00714	Auto	670	13.317	Default	0	0	0	0	0	0	81.17	0.00	0.00	17	116.00	0	0	81.17	0.00	73.00	643	333	49.13	190.24	0	0	0	0	0	0	0	0	0	0	0	0	0	0	0	1637	11.05	mg/L		0.00000
87	Alaninebeta(3TMS) C1-C3 m2	Target	1	292.00	13.334	13.297	13.353	1.380	278	201	0.00587	Auto	678	13.317	Default	0	0	0	0	0	0	81.17	0.00	0.00	33	116.00	0	0	81.17	0.00	73.00	643	333	49.13	231.29	0	0	0	0	0	0	0	0	0	0	0	0	0	0	0	1639	9.61	mg/L		0.00000
88	Alaninebeta(3TMS) C1-C3 m3	Target	1	293.00	13.331	13.307	13.353	1.420	84	59	0.00177	Auto	687	13.317	Default	0	0	0	0	0	0	81.17	0.00	0.00	30	116.00	0	0	81.17	0.00	73.00	643	333	49.13	765.48	0	0	0	0	0	0	0	0	0	0	0	0	0	0	0	1639	16.52	mg/L		0.00000
89	Malate(3TMS) C1-C4 m0	Target	1	335.00	14.167	14.133	14.183	2.050	41	20	0.00087	Auto	695	14.160	Default	0	0	0	0	134	129	63.24	326.83	0.00	28	147.00	134	129	63.24	326.83	233.00	0	0	17.93	0.00	0	0	0	0	0	0	0	0	0	0	0	0	0	0	0	1702	1.74	mg/L		0.00000
90	Malate(3TMS) C1-C4 m1	Target	1	336.00	14.178	14.157	14.193	1.410	62	44	0.00131	Auto	706	14.160	Default	0	0	0	0	134	129	63.24	216.13	0.00	20	147.00	134	129	63.24	216.13	233.00	0	0	17.93	0.00	0	0	0	0	0	0	0	0	0	0	0	0	0	0	0	1703	12.00	mg/L		0.00000
91	Malate(3TMS) C1-C4 m2	Target	1	337.00	14.145	14.130	14.160	0.900	9	10	0.00019	Auto	715	14.160	Default	0	0	0	0	0	0	63.24	0.00	0.00	15	147.00	0	0	63.24	0.00	233.00	177	94	17.93	1966.67	0	0	0	0	0	0	0	0	0	0	0	0	0	0	0	1701	0.62	mg/L		0.00000
92	Malate(3TMS) C1-C4 m3	Target	1	338.00	14.163	14.143	14.177	1.780	16	9	0.00034	Auto	726	14.160	Default	0	0	0	0	134	129	63.24	837.50	0.00	26	147.00	134	129	63.24	837.50	233.00	177	94	17.93	1106.25	0	0	0	0	0	0	0	0	0	0	0	0	0	0	0	1702	3.81	mg/L		0.00000
93	Malate(3TMS) C1-C4 m4	Target	1	339.00	14.143	14.123	14.160	1.330	28	21	0.00059	Auto	736	14.160	Default	0	0	0	0	0	0	63.24	0.00	0.00	13	147.00	0	0	63.24	0.00	233.00	177	94	17.93	632.14	0	0	0	0	0	0	0	0	0	0	0	0	0	0	0	1700	0.93	mg/L		0.00000
94	Malate(3TMS) C2-C4 m0	Target	1	233.00	14.150	14.127	14.190	1.880	177	94	0.00374	Auto	746	14.160	Default	0	0	0	0	134	129	63.24	75.71	0.00	25	147.00	134	129	63.24	75.71	233.00	177	94	17.93	100.00	0	0	0	0	0	0	0	0	0	0	0	0	0	0	0	1701	125.33	mg/L		0.00000
95	Malate(3TMS) C2-C4 m1	Target	1	234.00	14.174	14.153	14.203	1.290	121	94	0.00256	Auto	757	14.160	Default	0	0	0	0	134	129	63.24	110.74	0.00	9	147.00	134	129	63.24	110.74	233.00	0	0	17.93	0.00	0	0	0	0	0	0	0	0	0	0	0	0	0	0	0	1703	56.40	mg/L		0.00000
96	Malate(3TMS) C2-C4 m2	Target	1	235.00	14.161	14.147	14.173	1.060	17	16	0.00036	Auto	767	14.160	Default	0	0	0	0	134	129	63.24	788.24	0.00	26	147.00	134	129	63.24	788.24	233.00	177	94	17.93	1041.18	0	0	0	0	0	0	0	0	0	0	0	0	0	0	0	1702	0.88	mg/L		0.00000
97	Malate(3TMS) C2-C4 m3	Target	1	236.00	14.143	14.120	14.170	2.180	96	44	0.00203	Auto	778	14.160	Default	0	0	0	0	0	0	63.24	0.00	0.00	11	147.00	0	0	63.24	0.00	233.00	177	94	17.93	184.38	0	0	0	0	0	0	0	0	0	0	0	0	0	0	0	1700	7.59	mg/L		0.00000
98	Methionine(2TMS) C2-C5 m0	Target	1	176.00	14.510	14.493	14.540	1.550	444	286	0.00938	Auto	788	14.518	Default	0	0	0	0	1251	442	73.15	281.76	0.00	38	128.00	1251	442	73.15	281.76	73.00	0	0	35.45	0.00	0	0	0	0	0	0	0	0	0	0	0	0	0	0	0	1730	2.22	mg/L		0.00000
99	Methionine(2TMS) C2-C5 m1	Target	1	177.00	14.505	14.477	14.537	2.100	943	448	0.01991	Auto	794	14.518	Default	0	0	0	0	1251	442	73.15	132.66	0.00	30	128.00	1251	442	73.15	132.66	73.00	0	0	35.45	0.00	0	0	0	0	0	0	0	0	0	0	0	0	0	0	0	1730	1.21	mg/L		0.00000
100	Methionine(2TMS) C2-C5 m2	Target	1	178.00	14.510	14.467	14.543	1.860	2108	1133	0.04451	Auto	801	14.518	Default	0	0	0	0	1251	442	73.15	59.34	0.00	35	128.00	1251	442	73.15	59.34	73.00	0	0	35.45	0.00	0	0	0	0	0	0	0	0	0	0	0	0	0	0	0	1730	26.98	mg/L		0.00000
101	Methionine(2TMS) C2-C5 m3	Target	1	179.00	14.516	14.477	14.540	1.670	1233	737	0.02604	Auto	808	14.518	Default	0	0	0	0	1251	442	73.15	101.46	0.00	38	128.00	1251	442	73.15	101.46	73.00	0	0	35.45	0.00	0	0	0	0	0	0	0	0	0	0	0	0	0	0	0	1731	157.93	mg/L		0.00000
102	Methionine(2TMS) C2-C5 m4	Target	1	180.00	14.510	14.483	14.540	1.730	546	316	0.01153	Auto	817	14.518	Default	0	0	0	0	1251	442	73.15	229.12	0.00	36	128.00	1251	442	73.15	229.12	73.00	0	0	35.45	0.00	0	0	0	0	0	0	0	0	0	0	0	0	0	0	0	1730	126.40	mg/L		0.00000
103	Aspartate(3TMS) C2-C4 m0	Target	1	232.00	14.562	14.490	14.623	1.910	28924	15163	0.61076	Auto	824	14.566	Default	0	0	0	0	321900	159494	79.37	1112.92	0.00	47	73.00	321900	159494	79.37	1112.92	128.00	197	134	51.94	0.68	0	0	0	0	0	0	0	0	0	0	0	0	0	0	0	1735	1263.58	mg/L		0.00000
104	Aspartate(3TMS) C2-C4 m1	Target	1	233.00	14.560	14.513	14.637	1.920	81199	42255	1.71459	Auto	830	14.566	Default	0	0	0	0	321900	159494	79.37	396.43	0.00	47	73.00	321900	159494	79.37	396.43	128.00	0	0	51.94	0.00	0	0	0	0	0	0	0	0	0	0	0	0	0	0	0	1734	759.64	mg/L		0.00000
105	Aspartate(3TMS) C2-C4 m2	Target	1	234.00	14.560	14.513	14.627	1.910	86518	45310	1.82691	Auto	835	14.566	Default	0	0	0	0	321900	159494	79.37	372.06	0.00	47	73.00	321900	159494	79.37	372.06	128.00	0	0	51.94	0.00	0	0	0	0	0	0	0	0	0	0	0	0	0	0	0	1734	459.79	mg/L		0.00000
106	Aspartate(3TMS) C2-C4 m3	Target	1	235.00	14.559	14.507	14.623	1.850	50601	27326	1.06849	Auto	840	14.566	Default	0	0	0	0	321900	159494	79.37	636.15	0.00	47	73.00	321900	159494	79.37	636.15	128.00	0	0	51.94	0.00	0	0	0	0	0	0	0	0	0	0	0	0	0	0	0	1734	828.06	mg/L		0.00000
107	2oxoglutarate(1MEOX)(2TMS) C1-C5 m5	Target	1	293.00	15.239	15.223	15.257	1.150	39	34	0.00082	Auto	848	15.222	Default	0	0	0	0	0	0	63.24	0.00	0.00	6	147.00	0	0	63.24	0.00	233.00	33	28	17.93	84.61	0	0	0	0	0	0	0	0	0	0	0	0	0	0	0	1790	6.80	mg/L		0.00000
108	2oxoglutarate(1MEOX)(2TMS) C1-C5 m0	Target	1	288.00	15.228	15.203	15.247	1.370	41	30	0.00087	Auto	858	15.222	Default	0	0	0	0	1290	827	63.24	3146.34	0.00	15	147.00	1290	827	63.24	3146.34	233.00	0	0	17.93	0.00	0	0	0	0	0	0	0	0	0	0	0	0	0	0	0	1789	1.90	mg/L		0.00000
109	2oxoglutarate(1MEOX)(2TMS) C1-C5 m1	Target	1	289.00	15.214	15.190	15.233	1.260	131	104	0.00277	Auto	868	15.222	Default	0	0	0	0	1290	827	63.24	984.73	0.00	22	147.00	1290	827	63.24	984.73	233.00	95	53	17.93	72.52	0	0	0	0	0	0	0	0	0	0	0	0	0	0	0	1788	7.61	mg/L		0.00000
110	2oxoglutarate(1MEOX)(2TMS) C1-C5 m2	Target	1	290.00	15.254	15.213	15.283	1.590	374	235	0.00790	Auto	878	15.222	Default	0	0	0	0	0	0	63.24	0.00	0.00	14	147.00	0	0	63.24	0.00	233.00	33	28	17.93	8.82	0	0	0	0	0	0	0	0	0	0	0	0	0	0	0	1791	12.37	mg/L		0.00000
111	2oxoglutarate(1MEOX)(2TMS) C1-C5 m3	Target	1	291.00	15.250	15.207	15.280	1.770	708	400	0.01495	Auto	889	15.222	Default	0	0	0	0	0	0	63.24	0.00	0.00	13	147.00	0	0	63.24	0.00	233.00	33	28	17.93	4.66	0	0	0	0	0	0	0	0	0	0	0	0	0	0	0	1791	75.00	mg/L		0.00000
112	2oxoglutarate(1MEOX)(2TMS) C1-C5 m4	Target	1	292.00	15.251	15.240	15.310	1.860	253	136	0.00534	Auto	900	15.222	Default	0	0	0	0	0	0	63.24	0.00	0.00	36	147.00	0	0	63.24	0.00	233.00	33	28	17.93	13.04	0	0	0	0	0	0	0	0	0	0	0	0	0	0	0	1791	20.92	mg/L		0.00000
113	Glutamate(3TMS) C2-C5 m0	Target	1	246.00	15.747	15.703	15.790	1.930	9922	5134	0.20951	Auto	909	15.745	Default	0	0	0	0	143015	76302	79.37	1441.39	0.00	70	73.00	143015	76302	79.37	1441.39	128.00	9682	5082	51.94	97.58	0	0	0	0	0	0	0	0	0	0	0	0	0	0	0	1833	205.36	mg/L		0.00000
114	Glutamate(3TMS) C2-C5 m1	Target	1	247.00	15.746	15.700	15.830	1.870	39276	21052	0.82935	Auto	916	15.745	Default	0	0	0	0	143015	76302	79.37	364.13	0.00	68	73.00	143015	76302	79.37	364.13	128.00	9682	5082	51.94	24.65	0	0	0	0	0	0	0	0	0	0	0	0	0	0	0	1833	2105.20	mg/L		0.00000
115	Glutamate(3TMS) C2-C5 m2	Target	1	248.00	15.745	15.700	15.793	1.930	61917	32099	1.30743	Auto	921	15.745	Default	0	0	0	0	143015	76302	79.37	230.98	0.00	70	73.00	143015	76302	79.37	230.98	128.00	9682	5082	51.94	15.64	0	0	0	0	0	0	0	0	0	0	0	0	0	0	0	1833	1283.96	mg/L		0.00000
116	Glutamate(3TMS) C2-C5 m3	Target	1	249.00	15.747	15.693	15.793	1.890	50236	26512	1.06078	Auto	927	15.745	Default	0	0	0	0	143015	76302	79.37	284.69	0.00	70	73.00	143015	76302	79.37	284.69	128.00	9682	5082	51.94	19.27	0	0	0	0	0	0	0	0	0	0	0	0	0	0	0	1833	924.84	mg/L		0.00000
117	Glutamate(3TMS) C2-C5 m4	Target	1	250.00	15.746	15.690	15.830	1.890	21687	11503	0.45794	Auto	933	15.745	Default	0	0	0	0	143015	76302	79.37	659.45	0.00	67	73.00	143015	76302	79.37	659.45	128.00	9682	5082	51.94	44.64	0	0	0	0	0	0	0	0	0	0	0	0	0	0	0	1833	1150.30	mg/L		0.00000
118	Phenylalanine(2TMS) C1-C2 m0	Target	1	218.00	15.835	15.790	15.900	1.920	19647	10225	0.41486	Auto	941	15.830	Default	0	0	0	0	112981	58838	79.37	575.05	0.00	40	73.00	112981	58838	79.37	575.05	128.00	267	163	51.94	1.36	0	0	0	0	0	0	0	0	0	0	0	0	0	0	0	1841	365.18	mg/L		0.00000
119	Phenylalanine(2TMS) C1-C2 m1	Target	1	219.00	15.833	15.790	15.880	1.860	45211	24369	0.95467	Auto	948	15.830	Default	0	0	0	0	112981	58838	79.37	249.90	0.00	40	73.00	112981	58838	79.37	249.90	128.00	267	163	51.94	0.59	0	0	0	0	0	0	0	0	0	0	0	0	0	0	0	1841	269.77	mg/L		0.00000
120	Phenylalanine(2TMS) C1-C2 m2	Target	1	220.00	15.832	15.780	15.883	1.970	30646	15548	0.64712	Auto	956	15.830	Default	0	0	0	0	112981	58838	79.37	368.67	0.00	40	73.00	112981	58838	79.37	368.67	128.00	267	163	51.94	0.87	0	0	0	0	0	0	0	0	0	0	0	0	0	0	0	1840	1554.80	mg/L		0.00000
121	Phenylalanine(2TMS) C2-C9 m0	Target	1	192.00	15.827	15.797	15.897	2.160	660	305	0.01394	Auto	964	15.830	Default	0	0	0	0	112981	58838	79.37	17118.33	0.00	39	73.00	112981	58838	79.37	17118.33	128.00	267	163	51.94	40.45	0	0	0	0	0	0	0	0	0	0	0	0	0	0	0	1840	8.97	mg/L		0.00000
122	Phenylalanine(2TMS) C2-C9 m1	Target	1	193.00	15.837	15.800	15.887	1.810	2087	1153	0.04407	Auto	972	15.830	Default	0	0	0	0	112981	58838	79.37	5413.56	0.00	40	73.00	112981	58838	79.37	5413.56	128.00	267	163	51.94	12.79	0	0	0	0	0	0	0	0	0	0	0	0	0	0	0	1841	144.12	mg/L		0.00000
123	Phenylalanine(2TMS) C2-C9 m2	Target	1	194.00	15.831	15.777	15.890	1.940	7066	3647	0.14920	Auto	980	15.830	Default	0	0	0	0	112981	58838	79.37	1598.94	0.00	39	73.00	112981	58838	79.37	1598.94	128.00	267	163	51.94	3.78	0	0	0	0	0	0	0	0	0	0	0	0	0	0	0	1840	111.48	mg/L		0.00000
124	Phenylalanine(2TMS) C2-C9 m3	Target	1	195.00	15.832	15.780	15.890	1.880	13873	7361	0.29294	Auto	986	15.830	Default	0	0	0	0	112981	58838	79.37	814.39	0.00	39	73.00	112981	58838	79.37	814.39	128.00	267	163	51.94	1.93	0	0	0	0	0	0	0	0	0	0	0	0	0	0	0	1840	103.68	mg/L		0.00000
125	Phenylalanine(2TMS) C2-C9 m4	Target	1	196.00	15.835	15.790	15.910	1.890	19242	10173	0.40631	Auto	995	15.830	Default	0	0	0	0	112981	58838	79.37	587.16	0.00	40	73.00	112981	58838	79.37	587.16	128.00	267	163	51.94	1.39	0	0	0	0	0	0	0	0	0	0	0	0	0	0	0	1841	803.13	mg/L		0.00000
126	Phenylalanine(2TMS) C2-C9 m5	Target	1	197.00	15.833	15.780	15.883	1.880	15098	8020	0.31881	Auto	1003	15.830	Default	0	0	0	0	112981	58838	79.37	748.32	0.00	40	73.00	112981	58838	79.37	748.32	128.00	267	163	51.94	1.77	0	0	0	0	0	0	0	0	0	0	0	0	0	0	0	1841	1604.00	mg/L		0.00000
127	Phenylalanine(2TMS) C2-C9 m6	Target	1	198.00	15.831	15.787	15.880	2.150	7827	3637	0.16527	Auto	1011	15.830	Default	0	0	0	0	112981	58838	79.37	1443.48	0.00	39	73.00	112981	58838	79.37	1443.48	128.00	267	163	51.94	3.41	0	0	0	0	0	0	0	0	0	0	0	0	0	0	0	1840	84.86	mg/L		0.00000
128	Phenylalanine(2TMS) C2-C9 m7	Target	1	199.00	15.833	15.787	15.877	1.700	3195	1874	0.06747	Auto	1018	15.830	Default	0	0	0	0	112981	58838	79.37	3536.18	0.00	40	73.00	112981	58838	79.37	3536.18	128.00	267	163	51.94	8.36	0	0	0	0	0	0	0	0	0	0	0	0	0	0	0	1841	551.18	mg/L		0.00000
129	Phenylalanine(2TMS) C2-C9 m8	Target	1	200.00	15.836	15.787	15.867	1.850	641	346	0.01354	Auto	1026	15.830	Default	0	0	0	0	112981	58838	79.37	17625.74	0.00	40	73.00	112981	58838	79.37	17625.74	128.00	267	163	51.94	41.65	0	0	0	0	0	0	0	0	0	0	0	0	0	0	0	1841	17.47	mg/L		0.00000
130	Asparagine(3TMS) C2-C4 m0	Target	1	231.00	16.381	16.350	16.417	2.040	106	52	0.00224	Auto	1035	16.359	Default	0	0	0	0	0	0	79.37	0.00	0.00	12	73.00	0	0	79.37	0.00	128.00	175	126	51.94	165.09	0	0	0	0	0	0	0	0	0	0	0	0	0	0	0	1888	2.41	mg/L		0.00000
131	Asparagine(3TMS) C2-C4 m1	Target	1	232.00	16.354	16.330	16.367	1.400	35	25	0.00074	Auto	1043	16.359	Default	0	0	0	0	0	0	79.37	0.00	0.00	6	73.00	0	0	79.37	0.00	128.00	175	126	51.94	500.00	0	0	0	0	0	0	0	0	0	0	0	0	0	0	0	1886	2.16	mg/L		0.00000
132	Asparagine(3TMS) C2-C4 m2	Target	1	233.00	16.340	16.323	16.377	2.200	55	25	0.00116	Auto	1054	16.359	Default	0	0	0	0	0	0	79.37	0.00	0.00	11	73.00	0	0	79.37	0.00	128.00	0	0	51.94	0.00	0	0	0	0	0	0	0	0	0	0	0	0	0	0	0	1884	2.14	mg/L		0.00000
133	Asparagine(3TMS) C2-C4 m3	Target	1	234.00	16.348	16.327	16.370	1.470	44	30	0.00093	Auto	1063	16.359	Default	0	0	0	0	0	0	79.37	0.00	0.00	15	73.00	0	0	79.37	0.00	128.00	0	0	51.94	0.00	0	0	0	0	0	0	0	0	0	0	0	0	0	0	0	1885	1.00	mg/L		0.00000
134	Asparagine(2TMS) C2-C4 m0	Target	1	159.00	16.840	16.803	16.867	1.750	154	88	0.00325	Auto	1073	16.821	Default	0	0	0	0	0	0	79.37	0.00	0.00	18	73.00	0	0	79.37	0.00	128.00	169	114	51.94	109.74	0	0	0	0	0	0	0	0	0	0	0	0	0	0	0	1927	0.63	mg/L		0.00000
135	Asparagine(2TMS) C2-C4 m1	Target	1	160.00	16.857	16.837	16.893	1.800	176	98	0.00372	Auto	1082	16.821	Default	0	0	0	0	0	0	79.37	0.00	0.00	11	73.00	0	0	79.37	0.00	128.00	0	0	51.94	0.00	0	0	0	0	0	0	0	0	0	0	0	0	0	0	0	1929	1.12	mg/L		0.00000
136	Asparagine(2TMS) C2-C4 m2	Target	1	161.00	16.862	16.843	16.883	1.170	102	87	0.00215	Auto	1091	16.821	Default	0	0	0	0	0	0	79.37	0.00	0.00	20	73.00	0	0	79.37	0.00	128.00	32	31	51.94	31.37	0	0	0	0	0	0	0	0	0	0	0	0	0	0	0	1929	1.90	mg/L		0.00000
137	Asparagine(2TMS) C2-C4 m3	Target	1	162.00	16.817	16.810	16.837	1.590	62	39	0.00131	Auto	1100	16.821	Default	0	0	0	0	517	332	79.37	833.87	0.00	16	73.00	517	332	79.37	833.87	128.00	0	0	51.94	0.00	0	0	0	0	0	0	0	0	0	0	0	0	0	0	0	1925	0.26	mg/L		0.00000
138	Adonitol (5TMS) exp	ISTD	1	73.00	17.135	17.087	17.193	1.970	2020486	1025055	1.00000	Auto	1109	17.140	Default	0	0	0	0	1082240	550072	76.90	53.56	0.00	94	217.00	1082240	550072	76.90	53.56	147.00	1016846	516262	62.84	50.33	0	0	0	0	0	0	0	0	0	0	0	0	0	0	0	1952	1580.66	mg/L		0.00000
139	Xylitol (5TMS) exp	Target	1	217.00	17.135	17.087	17.200	1.970	1082240	550072	22.85248	Auto	1112	17.140	Default	0	0	0	0	2020486	1025055	99.01	186.69	0.00	92	73.00	2020486	1025055	99.01	186.69	147.00	1016846	516262	59.48	93.96	0	0	0	0	0	0	0	0	0	0	0	0	0	0	0	1952	1588.27	mg/L		0.00000
140	Glutamine(3TMS) C2-C5 m0	Target	1	245.00	17.517	17.497	17.553	1.890	72	38	0.00152	Auto	1116	17.540	Default	0	0	0	0	1660	1028	79.37	2305.56	0.00	24	73.00	1660	1028	79.37	2305.56	128.00	0	0	51.94	0.00	0	0	0	0	0	0	0	0	0	0	0	0	0	0	0	1985	0.94	mg/L		0.00000
141	Glutamine(3TMS) C2-C5 m1	Target	1	246.00	17.557	17.540	17.567	1.410	24	17	0.00051	Auto	1126	17.540	Default	0	0	0	0	0	0	79.37	0.00	0.00	21	73.00	0	0	79.37	0.00	128.00	60	40	51.94	250.00	0	0	0	0	0	0	0	0	0	0	0	0	0	0	0	1988	0.83	mg/L		0.00000
142	Glutamine(3TMS) C2-C5 m2	Target	1	247.00	17.548	17.527	17.570	1.290	107	83	0.00226	Auto	1136	17.540	Default	0	0	0	0	0	0	79.37	0.00	0.00	7	73.00	0	0	79.37	0.00	128.00	60	40	51.94	56.08	0	0	0	0	0	0	0	0	0	0	0	0	0	0	0	1987	33.20	mg/L		0.00000
143	Glutamine(3TMS) C2-C5 m3	Target	1	248.00	17.547	17.533	17.567	1.560	28	18	0.00059	Auto	1146	17.540	Default	0	0	0	0	0	0	79.37	0.00	0.00	16	73.00	0	0	79.37	0.00	128.00	60	40	51.94	214.29	0	0	0	0	0	0	0	0	0	0	0	0	0	0	0	1987	4.50	mg/L		0.00000
144	Glutamine(3TMS) C2-C5 m4	Target	1	249.00	17.562	17.527	17.573	1.770	39	22	0.00082	Auto	1157	17.540	Default	0	0	0	0	0	0	79.37	0.00	0.00	9	73.00	0	0	79.37	0.00	128.00	60	40	51.94	153.85	0	0	0	0	0	0	0	0	0	0	0	0	0	0	0	1988	16.50	mg/L		0.00000
145	Ornithine(4TMS) C1-C5 m0	Target	1	420.00	18.222	18.200	18.240	1.530	90	59	0.00190	Auto	1167	18.195	Default	0	0	0	0	0	0	79.37	0.00	0.00	14	73.00	0	0	79.37	0.00	128.00	0	0	51.94	0.00	0	0	0	0	0	0	0	0	0	0	0	0	0	0	0	2036	19.67	mg/L		0.00000
146	Ornithine(4TMS) C1-C5 m1	Target	1	421.00	18.193	18.167	18.223	1.730	76	44	0.00160	Auto	1174	18.195	Default	0	0	0	0	0	0	79.37	0.00	0.00	28	73.00	0	0	79.37	0.00	128.00	120	94	51.94	157.90	0	0	0	0	0	0	0	0	0	0	0	0	0	0	0	2034	3.03	mg/L		0.00000
147	Ornithine(4TMS) C1-C5 m2	Target	1	422.00	18.212	18.183	18.233	1.590	54	34	0.00114	Auto	1181	18.195	Default	0	0	0	0	0	0	79.37	0.00	0.00	10	73.00	0	0	79.37	0.00	128.00	120	94	51.94	222.22	0	0	0	0	0	0	0	0	0	0	0	0	0	0	0	2035	2.96	mg/L		0.00000
148	Ornithine(4TMS) C1-C5 m3	Target	1	423.00	18.190	18.167	18.223	1.650	117	71	0.00247	Auto	1187	18.195	Default	0	0	0	0	0	0	79.37	0.00	0.00	33	73.00	0	0	79.37	0.00	128.00	120	94	51.94	102.56	0	0	0	0	0	0	0	0	0	0	0	0	0	0	0	2034	6.13	mg/L		0.00000
149	Ornithine(4TMS) C1-C5 m4	Target	1	424.00	18.175	18.110	18.200	3.310	149	45	0.00315	Auto	1193	18.195	Default	0	0	0	0	0	0	79.37	0.00	0.00	5	73.00	0	0	79.37	0.00	128.00	40	30	51.94	26.85	0	0	0	0	0	0	0	0	0	0	0	0	0	0	0	2033	6.62	mg/L		0.00000
150	Ornithine(4TMS) C1-C5 m5	Target	1	425.00	18.217	18.180	18.227	3.780	34	9	0.00072	Auto	1202	18.195	Default	0	0	0	0	0	0	79.37	0.00	0.00	18	73.00	0	0	79.37	0.00	128.00	0	0	51.94	0.00	0	0	0	0	0	0	0	0	0	0	0	0	0	0	0	2035	2.00	mg/L		0.00000
151	Citrate(4TMS) C1-C6 m0	Target	1	465.00	18.312	18.280	18.327	1.940	35	18	0.00074	Auto	1210	18.292	Default	0	0	0	0	0	0	99.76	0.00	0.00	7	73.00	0	0	99.76	0.00	147.00	0	0	73.77	0.00	0	0	0	0	0	0	0	0	0	0	0	0	0	0	0	2042	1.55	mg/L		0.00000
152	Citrate(4TMS) C1-C6 m1	Target	1	466.00	18.272	18.257	18.290	1.100	23	21	0.00049	Auto	1216	18.292	Default	0	0	0	0	0	0	99.76	0.00	0.00	21	73.00	0	0	99.76	0.00	147.00	859	541	73.77	3734.78	0	0	0	0	0	0	0	0	0	0	0	0	0	0	0	2039	6.56	mg/L		0.00000
153	Citrate(4TMS) C1-C6 m2	Target	1	467.00	18.287	18.273	18.297	1.260	44	35	0.00093	Auto	1224	18.292	Default	0	0	0	0	0	0	99.76	0.00	0.00	20	73.00	0	0	99.76	0.00	147.00	0	0	73.77	0.00	0	0	0	0	0	0	0	0	0	0	0	0	0	0	0	2040	11.67	mg/L		0.00000
154	Citrate(4TMS) C1-C6 m3	Target	1	468.00	18.288	18.270	18.303	1.640	90	55	0.00190	Auto	1231	18.292	Default	0	0	0	0	0	0	99.76	0.00	0.00	12	73.00	0	0	99.76	0.00	147.00	0	0	73.77	0.00	0	0	0	0	0	0	0	0	0	0	0	0	0	0	0	2040	4.40	mg/L		0.00000
155	Citrate(4TMS) C1-C6 m4	Target	1	469.00	18.280	18.253	18.297	1.230	27	22	0.00057	Auto	1236	18.292	Default	0	0	0	0	0	0	99.76	0.00	0.00	17	73.00	0	0	99.76	0.00	147.00	0	0	73.77	0.00	0	0	0	0	0	0	0	0	0	0	0	0	0	0	0	2040	2.15	mg/L		0.00000
156	Citrate(4TMS) C1-C6 m5	Target	1	470.00	18.301	18.277	18.323	1.730	45	26	0.00095	Auto	1244	18.292	Default	0	0	0	0	0	0	99.76	0.00	0.00	16	73.00	0	0	99.76	0.00	147.00	0	0	73.77	0.00	0	0	0	0	0	0	0	0	0	0	0	0	0	0	0	2041	4.59	mg/L		0.00000
157	Citrate(4TMS) C1-C6 m6	Target	1	471.00	18.307	18.293	18.330	1.500	15	10	0.00032	Auto	1251	18.292	Default	0	0	0	0	0	0	99.76	0.00	0.00	12	73.00	0	0	99.76	0.00	147.00	0	0	73.77	0.00	0	0	0	0	0	0	0	0	0	0	0	0	0	0	0	2041	1.67	mg/L		0.00000
158	Citrate(4TMS) C1-C5 m0	Target	1	273.00	18.275	18.230	18.320	1.970	236	120	0.00498	Auto	1257	18.292	Default	0	0	0	0	0	0	99.76	0.00	0.00	22	73.00	0	0	99.76	0.00	147.00	0	0	73.77	0.00	0	0	0	0	0	0	0	0	0	0	0	0	0	0	0	2039	15.58	mg/L		0.00000
159	Citrate(4TMS) C1-C5 m1	Target	1	274.00	18.293	18.270	18.310	1.380	73	53	0.00154	Auto	1263	18.292	Default	0	0	0	0	0	0	99.76	0.00	0.00	16	73.00	0	0	99.76	0.00	147.00	0	0	73.77	0.00	0	0	0	0	0	0	0	0	0	0	0	0	0	0	0	2041	12.23	mg/L		0.00000
160	Citrate(4TMS) C1-C5 m2	Target	1	275.00	18.277	18.257	18.300	1.180	125	106	0.00264	Auto	1270	18.292	Default	0	0	0	0	0	0	99.76	0.00	0.00	23	73.00	0	0	99.76	0.00	147.00	0	0	73.77	0.00	0	0	0	0	0	0	0	0	0	0	0	0	0	0	0	2039	26.50	mg/L		0.00000
161	Citrate(4TMS) C1-C5 m3	Target	1	276.00	18.277	18.257	18.297	1.170	82	70	0.00173	Auto	1276	18.292	Default	0	0	0	0	0	0	99.76	0.00	0.00	20	73.00	0	0	99.76	0.00	147.00	0	0	73.77	0.00	0	0	0	0	0	0	0	0	0	0	0	0	0	0	0	2039	2.82	mg/L		0.00000
162	Citrate(4TMS) C1-C5 m4	Target	1	277.00	18.271	18.250	18.293	1.360	109	80	0.00230	Auto	1281	18.292	Default	0	0	0	0	0	0	99.76	0.00	0.00	22	73.00	0	0	99.76	0.00	147.00	859	541	73.77	788.07	0	0	0	0	0	0	0	0	0	0	0	0	0	0	0	2039	3.93	mg/L		0.00000
163	Citrate(4TMS) C1-C5 m5	Target	1	278.00	18.310	18.293	18.353	1.790	34	19	0.00072	Auto	1287	18.292	Default	0	0	0	0	0	0	99.76	0.00	0.00	7	73.00	0	0	99.76	0.00	147.00	0	0	73.77	0.00	0	0	0	0	0	0	0	0	0	0	0	0	0	0	0	2042	0.41	mg/L		0.00000
164	Citrate(4TMS) C1-C5 m0	Target	1	363.00	18.289	18.273	18.307	1.200	53	44	0.00112	Auto	1293	18.292	Default	0	0	0	0	0	0	99.76	0.00	0.00	17	73.00	0	0	99.76	0.00	147.00	0	0	73.77	0.00	0	0	0	0	0	0	0	0	0	0	0	0	0	0	0	2040	7.33	mg/L		0.00000
165	Citrate(4TMS) C1-C5 m1	Target	1	364.00	18.293	18.237	18.333	2.930	167	57	0.00353	Auto	1299	18.292	Default	0	0	0	0	0	0	99.76	0.00	0.00	17	73.00	0	0	99.76	0.00	147.00	0	0	73.77	0.00	0	0	0	0	0	0	0	0	0	0	0	0	0	0	0	2041	38.00	mg/L		0.00000
166	Citrate(4TMS) C1-C5 m2	Target	1	365.00	18.282	18.267	18.300	0.960	23	24	0.00049	Auto	1305	18.292	Default	0	0	0	0	0	0	99.76	0.00	0.00	8	73.00	0	0	99.76	0.00	147.00	0	0	73.77	0.00	0	0	0	0	0	0	0	0	0	0	0	0	0	0	0	2040	3.37	mg/L		0.00000
167	Citrate(4TMS) C1-C5 m3	Target	1	366.00	18.278	18.267	18.300	1.260	43	34	0.00091	Auto	1311	18.292	Default	0	0	0	0	0	0	99.76	0.00	0.00	18	73.00	0	0	99.76	0.00	147.00	0	0	73.77	0.00	0	0	0	0	0	0	0	0	0	0	0	0	0	0	0	2040	1.82	mg/L		0.00000
168	Citrate(4TMS) C1-C5 m4	Target	1	367.00	18.349	18.323	18.370	1.430	53	37	0.00112	Auto	1318	18.292	Default	0	0	0	0	0	0	99.76	0.00	0.00	15	73.00	0	0	99.76	0.00	147.00	0	0	73.77	0.00	0	0	0	0	0	0	0	0	0	0	0	0	0	0	0	2044	3.52	mg/L		0.00000
169	Citrate(4TMS) C1-C5 m5	Target	1	368.00	18.293	18.270	18.310	1.830	55	30	0.00116	Auto	1324	18.292	Default	0	0	0	0	0	0	99.76	0.00	0.00	16	73.00	0	0	99.76	0.00	147.00	0	0	73.77	0.00	0	0	0	0	0	0	0	0	0	0	0	0	0	0	0	2041	3.75	mg/L		0.00000
170	Fructose(1MEOX)(5TMS)iso1 C4-C6 m0 	Target	1	307.00	19.280	19.260	19.310	2.440	273	112	0.00576	Auto	1330	19.302	Default	0	0	0	0	0	0	88.94	0.00	0.00	23	103.00	0	0	88.94	0.00	217.00	0	0	86.99	0.00	0	0	0	0	0	0	0	0	0	0	0	0	0	0	0	2106	5.76	mg/L		0.00000
171	Fructose(1MEOX)(5TMS)iso1 C4-C6 m1	Target	1	308.00	19.311	19.290	19.330	1.460	120	82	0.00253	Auto	1334	19.302	Default	0	0	0	0	1099	487	88.94	915.83	0.00	25	103.00	1099	487	88.94	915.83	217.00	0	0	86.99	0.00	0	0	0	0	0	0	0	0	0	0	0	0	0	0	0	2108	5.72	mg/L		0.00000
172	Fructose(1MEOX)(5TMS)iso1 C4-C6 m2	Target	1	309.00	19.307	19.283	19.353	2.510	168	67	0.00355	Auto	1338	19.302	Default	0	0	0	0	1099	487	88.94	654.17	0.00	45	103.00	1099	487	88.94	654.17	217.00	0	0	86.99	0.00	0	0	0	0	0	0	0	0	0	0	0	0	0	0	0	2108	5.38	mg/L		0.00000
173	Fructose(1MEOX)(5TMS)iso1 C4-C6 m3	Target	1	310.00	19.283	19.260	19.337	2.790	67	24	0.00141	Auto	1342	19.302	Default	0	0	0	0	0	0	88.94	0.00	0.00	27	103.00	0	0	88.94	0.00	217.00	0	0	86.99	0.00	0	0	0	0	0	0	0	0	0	0	0	0	0	0	0	2106	0.96	mg/L		0.00000
174	Fructose(1MEOX)(5TMS)iso1 C1-C4 m0 	Target	1	364.00	19.284	19.260	19.330	1.660	242	146	0.00511	Auto	1346	19.302	Default	0	0	0	0	0	0	88.94	0.00	0.00	23	103.00	0	0	88.94	0.00	217.00	0	0	86.99	0.00	0	0	0	0	0	0	0	0	0	0	0	0	0	0	0	2106	6.36	mg/L		0.00000
175	Fructose(1MEOX)(5TMS)iso1 C1-C4 m1 	Target	1	365.00	19.313	19.303	19.343	1.000	14	14	0.00030	Auto	1348	19.302	Default	0	0	0	0	1099	487	88.94	7850.00	0.00	14	103.00	1099	487	88.94	7850.00	217.00	0	0	86.99	0.00	0	0	0	0	0	0	0	0	0	0	0	0	0	0	0	2108	0.82	mg/L		0.00000
176	Fructose(1MEOX)(5TMS)iso1 C1-C4 m2 	Target	1	366.00	19.297	19.287	19.313	0.730	11	15	0.00023	Auto	1353	19.302	Default	0	0	0	0	1099	487	88.94	9990.91	0.00	29	103.00	1099	487	88.94	9990.91	217.00	0	0	86.99	0.00	0	0	0	0	0	0	0	0	0	0	0	0	0	0	0	2107	2.73	mg/L		0.00000
177	Fructose(1MEOX)(5TMS)iso1 C1-C4 m3	Target	1	367.00	19.310	19.293	19.320	1.080	14	13	0.00030	Auto	1359	19.302	Default	0	0	0	0	1099	487	88.94	7850.00	0.00	22	103.00	1099	487	88.94	7850.00	217.00	0	0	86.99	0.00	0	0	0	0	0	0	0	0	0	0	0	0	0	0	0	2108	2.89	mg/L		0.00000
178	Fructose(1MEOX)(5TMS)iso1 C1-C4 m4	Target	1	368.00	19.293	19.260	19.317	1.850	37	20	0.00078	Auto	1362	19.302	Default	0	0	0	0	0	0	88.94	0.00	0.00	23	103.00	0	0	88.94	0.00	217.00	0	0	86.99	0.00	0	0	0	0	0	0	0	0	0	0	0	0	0	0	0	2107	1.67	mg/L		0.00000
179	Fructose (1MEOX) (5TMS) isomer2 exp	Target	1	73.00	Not Identified									19.484	Default	0	0	0	0																																				
180	Fructose(1MEOX)(5TMS)iso2 C4-C6 m0 	Target	1	307.00	19.473	19.453	19.513	2.200	486	221	0.01026	Auto	1368	19.484	Default	0	0	0	0	726	253	88.94	149.38	0.00	33	103.00	726	253	88.94	149.38	217.00	0	0	86.99	0.00	0	0	0	0	0	0	0	0	0	0	0	0	0	0	0	2116	10.05	mg/L		0.00000
181	Fructose(1MEOX)(5TMS)iso2 C4-C6 m1	Target	1	308.00	19.502	19.467	19.540	2.380	271	114	0.00572	Auto	1371	19.484	Default	0	0	0	0	0	0	88.94	0.00	0.00	31	103.00	0	0	88.94	0.00	217.00	0	0	86.99	0.00	0	0	0	0	0	0	0	0	0	0	0	0	0	0	0	2118	3.35	mg/L		0.00000
182	Fructose(1MEOX)(5TMS)iso2 C4-C6 m2	Target	1	309.00	19.483	19.460	19.527	2.140	485	227	0.01024	Auto	1374	19.484	Default	0	0	0	0	726	253	88.94	149.69	0.00	41	103.00	726	253	88.94	149.69	217.00	0	0	86.99	0.00	0	0	0	0	0	0	0	0	0	0	0	0	0	0	0	2117	11.27	mg/L		0.00000
183	Fructose(1MEOX)(5TMS)iso2 C4-C6 m3	Target	1	310.00	19.487	19.470	19.513	1.270	33	26	0.00070	Auto	1379	19.484	Default	0	0	0	0	726	253	88.94	2200.00	0.00	40	103.00	726	253	88.94	2200.00	217.00	0	0	86.99	0.00	0	0	0	0	0	0	0	0	0	0	0	0	0	0	0	2117	5.20	mg/L		0.00000
184	Fructose(1MEOX)(5TMS)iso2 C1-C4 m0 	Target	1	364.00	19.492	19.473	19.510	1.220	50	41	0.00106	Auto	1383	19.484	Default	0	0	0	0	0	0	88.94	0.00	0.00	37	103.00	0	0	88.94	0.00	217.00	0	0	86.99	0.00	0	0	0	0	0	0	0	0	0	0	0	0	0	0	0	2117	7.32	mg/L		0.00000
185	Fructose(1MEOX)(5TMS)iso2 C1-C4 m1 	Target	1	365.00	19.511	19.480	19.540	1.760	81	46	0.00171	Auto	1387	19.484	Default	0	0	0	0	0	0	88.94	0.00	0.00	19	103.00	0	0	88.94	0.00	217.00	0	0	86.99	0.00	0	0	0	0	0	0	0	0	0	0	0	0	0	0	0	2118	2.78	mg/L		0.00000
186	Fructose(1MEOX)(5TMS)iso2 C1-C4 m2 	Target	1	366.00	19.507	19.473	19.533	2.410	89	37	0.00188	Auto	1392	19.484	Default	0	0	0	0	0	0	88.94	0.00	0.00	12	103.00	0	0	88.94	0.00	217.00	0	0	86.99	0.00	0	0	0	0	0	0	0	0	0	0	0	0	0	0	0	2118	1.39	mg/L		0.00000
187	Fructose(1MEOX)(5TMS)iso2 C1-C4 m3	Target	1	367.00	19.495	19.470	19.520	2.110	59	28	0.00125	Auto	1396	19.484	Default	0	0	0	0	0	0	88.94	0.00	0.00	39	103.00	0	0	88.94	0.00	217.00	0	0	86.99	0.00	0	0	0	0	0	0	0	0	0	0	0	0	0	0	0	2118	10.18	mg/L		0.00000
188	Fructose(1MEOX)(5TMS)iso2 C1-C4 m4	Target	1	368.00	19.460	19.437	19.497	2.360	139	59	0.00294	Auto	1400	19.484	Default	0	0	0	0	726	253	88.94	522.30	0.00	10	103.00	726	253	88.94	522.30	217.00	0	0	86.99	0.00	0	0	0	0	0	0	0	0	0	0	0	0	0	0	0	2116	39.33	mg/L		0.00000
189	Galactose(1MEOX)(5TMS)iso1 C3-C6 m0	Target	1	319.00	19.687	19.673	19.710	1.040	177	170	0.00374	Auto	1404	19.664	Default	0	0	0	0	0	0	61.66	0.00	0.00	13	147.00	0	0	61.66	0.00	319.00	177	170	60.70	100.00	0	0	0	0	0	0	0	0	0	0	0	0	0	0	0	2128	0.83	mg/L		0.00000
190	Galactose(1MEOX)(5TMS)iso1 C3-C6 m1	Target	1	320.00	Not Identified									19.664	Default	0	0	0	0																																				
191	Galactose(1MEOX)(5TMS)iso1 C3-C6 m2	Target	1	321.00	19.653	19.637	19.680	2.120	72	34	0.00152	Auto	1408	19.664	Default	0	0	0	0	0	0	61.66	0.00	0.00	20	147.00	0	0	61.66	0.00	319.00	0	0	60.70	0.00	0	0	0	0	0	0	0	0	0	0	0	0	0	0	0	2126	2.34	mg/L		0.00000
192	Galactose(1MEOX)(5TMS)iso1 C3-C6 m3	Target	1	322.00	19.673	19.657	19.723	2.740	74	27	0.00156	Auto	1412	19.664	Default	0	0	0	0	0	0	61.66	0.00	0.00	14	147.00	0	0	61.66	0.00	319.00	177	170	60.70	239.19	0	0	0	0	0	0	0	0	0	0	0	0	0	0	0	2127	3.86	mg/L		0.00000
193	Galactose(1MEOX)(5TMS)iso1 C3-C6 m4	Target	1	323.00	19.682	19.647	19.697	1.560	56	36	0.00118	Auto	1415	19.664	Default	0	0	0	0	0	0	61.66	0.00	0.00	11	147.00	0	0	61.66	0.00	319.00	177	170	60.70	316.07	0	0	0	0	0	0	0	0	0	0	0	0	0	0	0	2128	1.76	mg/L		0.00000
194	Galactose(1MEOX)(5TMS)iso1 C1-C2 m0	Target	1	160.00	19.715	19.693	19.733	1.210	109	90	0.00230	Auto	1418	19.664	Default	0	0	0	0	0	0	61.66	0.00	0.00	16	147.00	0	0	61.66	0.00	319.00	0	0	60.70	0.00	0	0	0	0	0	0	0	0	0	0	0	0	0	0	0	2129	1.94	mg/L		0.00000
195	Galactose(1MEOX)(5TMS)iso1 C1-C2 m1	Target	1	161.00	19.706	19.683	19.723	1.140	49	43	0.00103	Auto	1421	19.664	Default	0	0	0	0	0	0	61.66	0.00	0.00	21	147.00	0	0	61.66	0.00	319.00	0	0	60.70	0.00	0	0	0	0	0	0	0	0	0	0	0	0	0	0	0	2129	2.23	mg/L		0.00000
196	Galactose(1MEOX)(5TMS)iso1 C1-C2 m2	Target	1	162.00	19.663	19.650	19.737	1.690	49	29	0.00103	Auto	1423	19.664	Default	0	0	0	0	0	0	61.66	0.00	0.00	8	147.00	0	0	61.66	0.00	319.00	0	0	60.70	0.00	0	0	0	0	0	0	0	0	0	0	0	0	0	0	0	2127	0.56	mg/L		0.00000
197	Glucose(1MEOX)(5TMS)iso1 C3-C6 m0	Target	1	319.00	19.767	19.750	19.803	1.560	542	348	0.01144	Auto	1427	19.774	Default	0	0	0	0	542	348	65.81	100.00	0.00	45	319.00	542	348	65.81	100.00	147.00	1197	728	62.48	220.85	0	0	0	0	0	0	0	0	0	0	0	0	0	0	0	2132	0.19	mg/L		0.00000
198	Glucose(1MEOX)(5TMS)iso1 C3-C6 m1	Target	1	320.00	19.767	19.743	19.780	1.610	208	129	0.00439	Auto	1433	19.774	Default	0	0	0	0	542	348	65.81	260.58	0.00	34	319.00	542	348	65.81	260.58	147.00	1197	728	62.48	575.48	0	0	0	0	0	0	0	0	0	0	0	0	0	0	0	2132	0.15	mg/L		0.00000
199	Glucose(1MEOX)(5TMS)iso1 C3-C6 m2	Target	1	321.00	19.783	19.757	19.803	1.360	156	115	0.00329	Auto	1442	19.774	Default	0	0	0	0	542	348	65.81	347.44	0.00	42	319.00	542	348	65.81	347.44	147.00	1197	728	62.48	767.31	0	0	0	0	0	0	0	0	0	0	0	0	0	0	0	2133	0.17	mg/L		0.00000
200	Glucose(1MEOX)(5TMS)iso1 C3-C6 m3	Target	1	322.00	19.770	19.753	19.793	1.530	23	15	0.00049	Auto	1448	19.774	Default	0	0	0	0	542	348	65.81	2356.52	0.00	29	319.00	542	348	65.81	2356.52	147.00	1197	728	62.48	5204.35	0	0	0	0	0	0	0	0	0	0	0	0	0	0	0	2132	0.58	mg/L		0.00000
201	Glucose(1MEOX)(5TMS)iso1 C3-C6 m4	Target	1	323.00	19.778	19.763	19.790	0.920	11	12	0.00023	Auto	1458	19.774	Default	0	0	0	0	542	348	65.81	4927.27	0.00	38	319.00	542	348	65.81	4927.27	147.00	1197	728	62.48	10881.82	0	0	0	0	0	0	0	0	0	0	0	0	0	0	0	2133	0.47	mg/L		0.00000
202	Glucose(1MEOX)(5TMS)iso1 C1-C2  m0	Target	1	160.00	19.787	19.733	19.807	1.990	813	409	0.01717	Auto	1467	19.774	Default	0	0	0	0	0	0	65.81	0.00	0.00	38	319.00	0	0	65.81	0.00	147.00	216	176	62.48	26.57	0	0	0	0	0	0	0	0	0	0	0	0	0	0	0	2133	0.15	mg/L		0.00000
203	Glucose(1MEOX)(5TMS)iso1 C1-C2  m1	Target	1	161.00	19.791	19.767	19.807	1.260	144	114	0.00304	Auto	1474	19.774	Default	0	0	0	0	0	0	65.81	0.00	0.00	25	319.00	0	0	65.81	0.00	147.00	216	176	62.48	150.00	0	0	0	0	0	0	0	0	0	0	0	0	0	0	0	2133	0.11	mg/L		0.00000
204	Glucose(1MEOX)(5TMS)iso1 C1-C2  m2	Target	1	162.00	19.780	19.770	19.817	1.580	160	101	0.00338	Auto	1481	19.774	Default	0	0	0	0	542	348	65.81	338.75	0.00	37	319.00	542	348	65.81	338.75	147.00	1197	728	62.48	748.13	0	0	0	0	0	0	0	0	0	0	0	0	0	0	0	2133	1.34	mg/L		0.00000
205	Lysine(4TMS) C2-C6 m0	Target	1	317.00	19.865	19.817	19.897	2.380	1075	452	0.02270	Auto	1488	19.869	Default	0	0	0	0	113568	44282	69.98	10564.47	0.00	64	73.00	113568	44282	69.98	10564.47	174.00	48354	17022	68.13	4498.05	0	0	0	0	0	0	0	0	0	0	0	0	0	0	0	2137	54.92	mg/L		0.00000
206	Lysine(4TMS) C2-C6 m1	Target	1	318.00	19.873	19.807	19.943	2.250	3496	1551	0.07382	Auto	1495	19.869	Default	0	0	0	0	113568	44282	69.98	3248.51	0.00	64	73.00	113568	44282	69.98	3248.51	174.00	48354	17022	68.13	1383.12	0	0	0	0	0	0	0	0	0	0	0	0	0	0	0	2138	201.06	mg/L		0.00000
207	Lysine(4TMS) C2-C6 m2	Target	1	319.00	19.867	19.840	19.913	2.120	7054	3329	0.14895	Auto	1499	19.869	Default	0	0	0	0	113568	44282	69.98	1609.98	0.00	63	73.00	113568	44282	69.98	1609.98	174.00	48354	17022	68.13	685.48	0	0	0	0	0	0	0	0	0	0	0	0	0	0	0	2138	9.33	mg/L		0.00000
208	Lysine(4TMS) C2-C6 m3	Target	1	320.00	19.872	19.813	19.943	2.670	9785	3667	0.20662	Auto	1504	19.869	Default	0	0	0	0	113568	44282	69.98	1160.63	0.00	64	73.00	113568	44282	69.98	1160.63	174.00	48354	17022	68.13	494.17	0	0	0	0	0	0	0	0	0	0	0	0	0	0	0	2138	295.05	mg/L		0.00000
209	Lysine(4TMS) C2-C6 m4	Target	1	321.00	19.858	19.803	19.927	3.100	5059	1632	0.10683	Auto	1509	19.869	Default	0	0	0	0	113568	44282	69.98	2244.87	0.00	61	73.00	113568	44282	69.98	2244.87	174.00	48354	17022	68.13	955.80	0	0	0	0	0	0	0	0	0	0	0	0	0	0	0	2137	93.26	mg/L		0.00000
210	Lysine(4TMS) C2-C6 m5	Target	1	322.00	19.878	19.860	19.917	1.640	1336	814	0.02821	Auto	1516	19.869	Default	0	0	0	0	113568	44282	69.98	8500.60	0.00	47	73.00	113568	44282	69.98	8500.60	174.00	48354	17022	68.13	3619.31	0	0	0	0	0	0	0	0	0	0	0	0	0	0	0	2138	135.67	mg/L		0.00000
211	Tyrosine(3TMS) C1-C2 m0	Target	1	218.00	20.192	20.123	20.280	2.830	25285	8924	0.53392	Auto	1521	20.190	Default	0	0	0	0	70667	26654	79.37	279.48	0.00	38	73.00	70667	26654	79.37	279.48	128.00	0	0	51.94	0.00	0	0	0	0	0	0	0	0	0	0	0	0	0	0	0	2155	628.45	mg/L		0.00000
212	Tyrosine(3TMS) C1-C2 m1	Target	1	219.00	20.186	20.113	20.277	2.980	54051	18154	1.14134	Auto	1528	20.190	Default	0	0	0	0	70667	26654	79.37	130.74	0.00	38	73.00	70667	26654	79.37	130.74	128.00	104	73	51.94	0.19	0	0	0	0	0	0	0	0	0	0	0	0	0	0	0	2155	2792.92	mg/L		0.00000
213	Tyrosine(3TMS) C1-C2 m2	Target	1	220.00	20.186	20.107	20.277	3.110	38396	12359	0.81077	Auto	1533	20.190	Default	0	0	0	0	70667	26654	79.37	184.05	0.00	39	73.00	70667	26654	79.37	184.05	128.00	104	73	51.94	0.27	0	0	0	0	0	0	0	0	0	0	0	0	0	0	0	2155	988.72	mg/L		0.00000
214	Tyrosine(3TMS) C2-C9 m0	Target	1	280.00	20.173	20.150	20.203	1.550	260	168	0.00549	Auto	1540	20.190	Default	0	0	0	0	70667	26654	79.37	27179.62	0.00	35	73.00	70667	26654	79.37	27179.62	128.00	104	73	51.94	40.00	0	0	0	0	0	0	0	0	0	0	0	0	0	0	0	2154	48.00	mg/L		0.00000
215	Tyrosine(3TMS) C2-C9 m1	Target	1	281.00	20.198	20.167	20.247	2.850	947	332	0.02000	Auto	1549	20.190	Default	0	0	0	0	70667	26654	79.37	7462.20	0.00	38	73.00	70667	26654	79.37	7462.20	128.00	0	0	51.94	0.00	0	0	0	0	0	0	0	0	0	0	0	0	0	0	0	2155	199.20	mg/L		0.00000
216	Tyrosine(3TMS) C2-C9 m2	Target	1	282.00	20.184	20.153	20.233	2.710	1381	509	0.02916	Auto	1556	20.190	Default	0	0	0	0	70667	26654	79.37	5117.09	0.00	38	73.00	70667	26654	79.37	5117.09	128.00	104	73	51.94	7.53	0	0	0	0	0	0	0	0	0	0	0	0	0	0	0	2154	24.24	mg/L		0.00000
217	Tyrosine(3TMS) C2-C9 m3	Target	1	283.00	20.190	20.137	20.250	2.180	3181	1461	0.06717	Auto	1562	20.190	Default	0	0	0	0	70667	26654	79.37	2221.53	0.00	38	73.00	70667	26654	79.37	2221.53	128.00	104	73	51.94	3.27	0	0	0	0	0	0	0	0	0	0	0	0	0	0	0	2155	118.46	mg/L		0.00000
218	Tyrosine(3TMS) C2-C9 m4	Target	1	284.00	20.188	20.120	20.253	2.390	4324	1809	0.09131	Auto	1568	20.190	Default	0	0	0	0	70667	26654	79.37	1634.30	0.00	38	73.00	70667	26654	79.37	1634.30	128.00	104	73	51.94	2.40	0	0	0	0	0	0	0	0	0	0	0	0	0	0	0	2155	63.25	mg/L		0.00000
219	Tyrosine(3TMS) C2-C9 m5	Target	1	285.00	20.182	20.123	20.247	2.910	3095	1065	0.06535	Auto	1573	20.190	Default	0	0	0	0	70667	26654	79.37	2283.26	0.00	37	73.00	70667	26654	79.37	2283.26	128.00	104	73	51.94	3.36	0	0	0	0	0	0	0	0	0	0	0	0	0	0	0	2154	88.75	mg/L		0.00000
220	Tyrosine(3TMS) C2-C9 m6	Target	1	286.00	20.193	20.137	20.253	2.330	2668	1145	0.05634	Auto	1579	20.190	Default	0	0	0	0	70667	26654	79.37	2648.69	0.00	38	73.00	70667	26654	79.37	2648.69	128.00	0	0	51.94	0.00	0	0	0	0	0	0	0	0	0	0	0	0	0	0	0	2155	99.09	mg/L		0.00000
221	Tyrosine(3TMS) C2-C9 m7	Target	1	287.00	20.200	20.193	20.237	1.350	325	241	0.00686	Auto	1587	20.190	Default	0	0	0	0	70667	26654	79.37	21743.69	0.00	28	73.00	70667	26654	79.37	21743.69	128.00	0	0	51.94	0.00	0	0	0	0	0	0	0	0	0	0	0	0	0	0	0	2155	14.83	mg/L		0.00000
222	Tyrosine(3TMS) C2-C9 m8	Target	1	288.00	20.193	20.160	20.220	2.220	440	198	0.00929	Auto	1593	20.190	Default	0	0	0	0	70667	26654	79.37	16060.68	0.00	38	73.00	70667	26654	79.37	16060.68	128.00	0	0	51.94	0.00	0	0	0	0	0	0	0	0	0	0	0	0	0	0	0	2155	44.00	mg/L		0.00000
223	Tryptophan(2TMS) C1-C2 m0	Target	1	218.00	Not Identified									25.031	Default	0	0	0	0																																				
224	Tryptophan(2TMS) C1-C2 m1	Target	1	219.00	24.983	24.937	25.010	2.340	89	38	0.00188	Auto	1602	25.031	Default	0	0	0	0	0	0	79.37	0.00	0.00	15	73.00	0	0	79.37	0.00	128.00	0	0	51.94	0.00	0	0	0	0	0	0	0	0	0	0	0	0	0	0	0	2402	1.67	mg/L		0.00000
225	Tryptophan(2TMS) C1-C2 m2	Target	1	220.00	25.040	25.023	25.060	1.300	57	44	0.00120	Auto	1609	25.031	Default	0	0	0	0	0	0	79.37	0.00	0.00	8	73.00	0	0	79.37	0.00	128.00	118	58	51.94	207.02	0	0	0	0	0	0	0	0	0	0	0	0	0	0	0	2407	3.73	mg/L		0.00000
226	Tryptophan(2TMS) C3-C11 m0	Target	1	130.00	25.037	25.017	25.090	3.330	90	27	0.00190	Auto	1616	25.031	Default	0	0	0	0	0	0	79.37	0.00	0.00	7	73.00	0	0	79.37	0.00	128.00	118	58	51.94	131.11	0	0	0	0	0	0	0	0	0	0	0	0	0	0	0	2406	0.24	mg/L		0.00000
227	Tryptophan(2TMS) C3-C11 m1	Target	1	131.00	25.028	25.007	25.047	1.310	42	32	0.00089	Auto	1620	25.031	Default	0	0	0	0	0	0	79.37	0.00	0.00	17	73.00	0	0	79.37	0.00	128.00	118	58	51.94	280.95	0	0	0	0	0	0	0	0	0	0	0	0	0	0	0	2406	0.78	mg/L		0.00000
228	Tryptophan(2TMS) C3-C11 m2	Target	1	132.00	25.067	25.050	25.083	1.240	31	25	0.00065	Auto	1625	25.031	Default	0	0	0	0	0	0	79.37	0.00	0.00	23	73.00	0	0	79.37	0.00	128.00	0	0	51.94	0.00	0	0	0	0	0	0	0	0	0	0	0	0	0	0	0	2409	4.46	mg/L		0.00000
229	Tryptophan(2TMS) C3-C11 m3	Target	1	133.00	24.983	24.967	25.003	1.070	91	85	0.00192	Auto	1630	25.031	Default	0	0	0	0	0	0	79.37	0.00	0.00	15	73.00	0	0	79.37	0.00	128.00	0	0	51.94	0.00	0	0	0	0	0	0	0	0	0	0	0	0	0	0	0	2402	0.96	mg/L		0.00000
230	Tryptophan(2TMS) C3-C11 m4	Target	1	134.00	25.008	24.983	25.060	2.240	101	45	0.00213	Auto	1634	25.031	Default	0	0	0	0	0	0	79.37	0.00	0.00	2	73.00	0	0	79.37	0.00	128.00	0	0	51.94	0.00	0	0	0	0	0	0	0	0	0	0	0	0	0	0	0	2404	2.31	mg/L		0.00000
231	Tryptophan(2TMS) C3-C11 m5	Target	1	135.00	25.047	25.027	25.083	1.540	146	95	0.00308	Auto	1639	25.031	Default	0	0	0	0	0	0	79.37	0.00	0.00	12	73.00	0	0	79.37	0.00	128.00	118	58	51.94	80.82	0	0	0	0	0	0	0	0	0	0	0	0	0	0	0	2407	1.68	mg/L		0.00000
232	Tryptophan(2TMS) C3-C11 m6	Target	1	136.00	25.020	25.003	25.060	1.540	74	48	0.00156	Auto	1645	25.031	Default	0	0	0	0	0	0	79.37	0.00	0.00	24	73.00	0	0	79.37	0.00	128.00	0	0	51.94	0.00	0	0	0	0	0	0	0	0	0	0	0	0	0	0	0	2405	2.41	mg/L		0.00000
233	Tryptophan(2TMS) C3-C11 m7	Target	1	137.00	25.013	24.993	25.060	1.970	138	70	0.00291	Auto	1652	25.031	Default	0	0	0	0	0	0	79.37	0.00	0.00	7	73.00	0	0	79.37	0.00	128.00	0	0	51.94	0.00	0	0	0	0	0	0	0	0	0	0	0	0	0	0	0	2404	46.67	mg/L		0.00000
234	Tryptophan(2TMS) C3-C11 m8	Target	1	138.00	25.052	25.020	25.073	2.000	70	35	0.00148	Auto	1659	25.031	Default	0	0	0	0	0	0	79.37	0.00	0.00	8	73.00	0	0	79.37	0.00	128.00	118	58	51.94	168.57	0	0	0	0	0	0	0	0	0	0	0	0	0	0	0	2408	35.00	mg/L		0.00000
235	Tryptophan(2TMS) C3-C11 m9	Target	1	139.00	25.030	25.017	25.050	1.640	54	33	0.00114	Auto	1665	25.031	Default	0	0	0	0	0	0	79.37	0.00	0.00	10	73.00	0	0	79.37	0.00	128.00	118	58	51.94	218.52	0	0	0	0	0	0	0	0	0	0	0	0	0	0	0	2406	7.33	mg/L		0.00000
236	Tryptophan(3TMS) C1-C2 m0	Target	1	218.00	Not Identified									25.460	Default	0	0	0	0																																				
237	Tryptophan(3TMS) C1-C2 m1	Target	1	219.00	25.383	25.363	25.423	2.360	78	33	0.00165	Auto	1675	25.460	Default	0	0	0	0	0	0	79.37	0.00	0.00	13	73.00	0	0	79.37	0.00	128.00	0	0	51.94	0.00	0	0	0	0	0	0	0	0	0	0	0	0	0	0	0	2437	1.32	mg/L		0.00000
238	Tryptophan(3TMS) C1-C2 m2	Target	1	220.00	25.479	25.470	25.490	0.570	4	7	0.00008	Auto	1680	25.460	Default	0	0	0	0	0	0	79.37	0.00	0.00	15	73.00	0	0	79.37	0.00	128.00	0	0	51.94	0.00	0	0	0	0	0	0	0	0	0	0	0	0	0	0	0	2445	0.28	mg/L		0.00000
239	Tryptophan(3TMS) C3-C11 m0	Target	1	202.00	25.469	25.447	25.490	1.420	129	91	0.00272	Auto	1687	25.460	Default	0	0	0	0	0	0	79.37	0.00	0.00	23	73.00	0	0	79.37	0.00	128.00	0	0	51.94	0.00	0	0	0	0	0	0	0	0	0	0	0	0	0	0	0	2444	10.11	mg/L		0.00000
240	Tryptophan(3TMS) C3-C11 m1	Target	1	203.00	25.439	25.417	25.470	2.510	108	43	0.00228	Auto	1694	25.460	Default	0	0	0	0	0	0	79.37	0.00	0.00	17	73.00	0	0	79.37	0.00	128.00	83	69	51.94	76.85	0	0	0	0	0	0	0	0	0	0	0	0	0	0	0	2441	11.94	mg/L		0.00000
241	Tryptophan(3TMS) C3-C11 m2	Target	1	204.00	25.468	25.447	25.490	1.240	113	91	0.00239	Auto	1700	25.460	Default	0	0	0	0	0	0	79.37	0.00	0.00	22	73.00	0	0	79.37	0.00	128.00	0	0	51.94	0.00	0	0	0	0	0	0	0	0	0	0	0	0	0	0	0	2444	2.36	mg/L		0.00000
242	Tryptophan(3TMS) C3-C11 m3	Target	1	205.00	Not Identified									25.460	Default	0	0	0	0																																				
243	Tryptophan(3TMS) C3-C11 m4	Target	1	206.00	25.487	25.443	25.497	2.380	38	16	0.00080	Auto	1710	25.460	Default	0	0	0	0	0	0	79.37	0.00	0.00	13	73.00	0	0	79.37	0.00	128.00	0	0	51.94	0.00	0	0	0	0	0	0	0	0	0	0	0	0	0	0	0	2446	0.54	mg/L		0.00000
244	Tryptophan(3TMS) C3-C11 m5	Target	1	207.00	25.440	25.400	25.460	1.640	484	295	0.01022	Auto	1717	25.460	Default	0	0	0	0	0	0	79.37	0.00	0.00	19	73.00	0	0	79.37	0.00	128.00	83	69	51.94	17.15	0	0	0	0	0	0	0	0	0	0	0	0	0	0	0	2442	9.83	mg/L		0.00000
245	Tryptophan(3TMS) C3-C11 m6	Target	1	208.00	25.472	25.450	25.487	1.420	131	92	0.00277	Auto	1726	25.460	Default	0	0	0	0	0	0	79.37	0.00	0.00	23	73.00	0	0	79.37	0.00	128.00	0	0	51.94	0.00	0	0	0	0	0	0	0	0	0	0	0	0	0	0	0	2444	4.89	mg/L		0.00000
246	Tryptophan(3TMS) C3-C11 m7	Target	1	209.00	25.499	25.430	25.517	2.610	303	116	0.00640	Auto	1734	25.460	Default	0	0	0	0	0	0	79.37	0.00	0.00	11	73.00	0	0	79.37	0.00	128.00	93	58	51.94	30.69	0	0	0	0	0	0	0	0	0	0	0	0	0	0	0	2447	46.40	mg/L		0.00000
247	Tryptophan(3TMS) C3-C11 m8	Target	1	210.00	25.438	25.423	25.463	1.520	44	29	0.00093	Auto	1741	25.460	Default	0	0	0	0	0	0	79.37	0.00	0.00	5	73.00	0	0	79.37	0.00	128.00	83	69	51.94	188.64	0	0	0	0	0	0	0	0	0	0	0	0	0	0	0	2441	0.30	mg/L		0.00000
248	Tryptophan(3TMS) C3-C11 m9	Target	1	211.00	25.460	25.440	25.483	1.520	47	31	0.00099	Auto	1749	25.460	Default	0	0	0	0	0	0	79.37	0.00	0.00	20	73.00	0	0	79.37	0.00	128.00	83	69	51.94	176.60	0	0	0	0	0	0	0	0	0	0	0	0	0	0	0	2443	4.43	mg/L		0.00000
249	Sucrose(8TMS) (C1-C6gluc and fruc) m0	Target	1	361.00	30.567	30.547	30.600	1.930	54	28	0.00114	Auto	1756	30.580	Default	0	0	0	0	0	0	52.09	0.00	0.00	13	73.00	0	0	52.09	0.00	362.00	21	15	30.56	38.89	0	0	0	0	0	0	0	0	0	0	0	0	0	0	0	2960	6.46	mg/L		0.00000
250	Sucrose(8TMS) (C1-C6gluc and fruc) m1	Target	1	362.00	30.580	30.560	30.607	1.310	63	48	0.00133	Auto	1763	30.580	Default	0	0	0	0	0	0	52.09	0.00	0.00	15	73.00	0	0	52.09	0.00	362.00	63	48	30.56	100.00	0	0	0	0	0	0	0	0	0	0	0	0	0	0	0	2961	3.20	mg/L		0.00000
251	Sucrose(8TMS) (C1-C6gluc and fruc) m2	Target	1	363.00	30.575	30.560	30.590	1.310	21	16	0.00044	Auto	1768	30.580	Default	0	0	0	0	0	0	52.09	0.00	0.00	9	73.00	0	0	52.09	0.00	362.00	63	48	30.56	300.00	0	0	0	0	0	0	0	0	0	0	0	0	0	0	0	2960	1.39	mg/L		0.00000
252	Sucrose(8TMS) (C1-C6gluc and fruc) m3	Target	1	364.00	30.560	30.543	30.580	1.330	24	18	0.00051	Auto	1774	30.580	Default	0	0	0	0	0	0	52.09	0.00	0.00	8	73.00	0	0	52.09	0.00	362.00	21	15	30.56	87.50	0	0	0	0	0	0	0	0	0	0	0	0	0	0	0	2959	1.60	mg/L		0.00000
253	Sucrose(8TMS) (C1-C6gluc and fruc) m4	Target	1	365.00	30.568	30.550	30.597	1.760	60	34	0.00127	Auto	1781	30.580	Default	0	0	0	0	0	0	52.09	0.00	0.00	12	73.00	0	0	52.09	0.00	362.00	21	15	30.56	35.00	0	0	0	0	0	0	0	0	0	0	0	0	0	0	0	2960	1.14	mg/L		0.00000
254	Sucrose(8TMS) (C1-C6gluc and fruc) m5	Target	1	366.00	30.572	30.553	30.590	1.400	14	10	0.00030	Auto	1786	30.580	Default	0	0	0	0	0	0	52.09	0.00	0.00	7	73.00	0	0	52.09	0.00	362.00	63	48	30.56	450.00	0	0	0	0	0	0	0	0	0	0	0	0	0	0	0	2960	0.83	mg/L		0.00000
255	Sucrose(8TMS) (C1-C6gluc and fruc) m6	Target	1	367.00	30.567	30.560	30.587	1.000	13	13	0.00027	Auto	1791	30.580	Default	0	0	0	0	0	0	52.09	0.00	0.00	12	73.00	0	0	52.09	0.00	362.00	21	15	30.56	161.54	0	0	0	0	0	0	0	0	0	0	0	0	0	0	0	2960	1.33	mg/L		0.00000
256	Sucrose(8TMS) (C1-C6fructose) m0	Target	1	451.00	30.600	30.550	30.620	4.180	92	22	0.00194	Auto	1798	30.580	Default	0	0	0	0	0	0	52.09	0.00	0.00	4	73.00	0	0	52.09	0.00	362.00	0	0	30.56	0.00	0	0	0	0	0	0	0	0	0	0	0	0	0	0	0	2962	1.29	mg/L		0.00000
257	Sucrose(8TMS) (C1-C6fructose) m1	Target	1	452.00	30.575	30.550	30.593	1.860	82	44	0.00173	Auto	1803	30.580	Default	0	0	0	0	0	0	52.09	0.00	0.00	10	73.00	0	0	52.09	0.00	362.00	63	48	30.56	76.83	0	0	0	0	0	0	0	0	0	0	0	0	0	0	0	2960	4.63	mg/L		0.00000
258	Sucrose(8TMS) (C1-C6fructose) m2	Target	1	453.00	30.597	30.587	30.613	0.940	15	16	0.00032	Auto	1811	30.580	Default	0	0	0	0	0	0	52.09	0.00	0.00	1	73.00	0	0	52.09	0.00	362.00	63	48	30.56	420.00	0	0	0	0	0	0	0	0	0	0	0	0	0	0	0	2962	1.86	mg/L		0.00000
259	Sucrose(8TMS) (C1-C6fructose) m3	Target	1	454.00	30.589	30.570	30.613	1.920	75	39	0.00158	Auto	1818	30.580	Default	0	0	0	0	0	0	52.09	0.00	0.00	15	73.00	0	0	52.09	0.00	362.00	63	48	30.56	84.00	0	0	0	0	0	0	0	0	0	0	0	0	0	0	0	2962	7.80	mg/L		0.00000
260	Sucrose(8TMS) (C1-C6fructose) m4	Target	1	455.00	30.583	30.563	30.607	1.360	38	28	0.00080	Auto	1824	30.580	Default	0	0	0	0	0	0	52.09	0.00	0.00	14	73.00	0	0	52.09	0.00	362.00	63	48	30.56	165.79	0	0	0	0	0	0	0	0	0	0	0	0	0	0	0	2961	1.24	mg/L		0.00000
261	Sucrose(8TMS) (C1-C6fructose) m5	Target	1	456.00	30.565	30.543	30.583	1.750	35	20	0.00074	Auto	1829	30.580	Default	0	0	0	0	0	0	52.09	0.00	0.00	12	73.00	0	0	52.09	0.00	362.00	21	15	30.56	60.00	0	0	0	0	0	0	0	0	0	0	0	0	0	0	0	2960	1.00	mg/L		0.00000
262	Sucrose(8TMS) (C1-C6fructose) m6	Target	1	457.00	30.578	30.563	30.603	1.380	54	39	0.00114	Auto	1837	30.580	Default	0	0	0	0	0	0	52.09	0.00	0.00	8	73.00	0	0	52.09	0.00	362.00	63	48	30.56	116.67	0	0	0	0	0	0	0	0	0	0	0	0	0	0	0	2961	23.40	mg/L		0.00000

