[Header]
Data File Name	C:\Users\ydellero\Desktop\Projets CR\P2M2\TQD\210510_13C_Younes\13CPROT3.qgd
Output Date	23/08/2021
Output Time	14:09:49

[MS Quantitative Results]
# of IDs	262
ID#	Name	Type	ISTD Group#	Mass	Ret.Time	Start Time	End Time	A/H	Area	Height	Conc.	Mode	Peak#	Std.Ret.Time	Calibration Curve	3rd	2nd	1st	Constant	Ref.Ion Area	Ref.Ion Height	Ref.Ion Set Ratio	Ref.Ion Ratio	Recovery	SI	Ref.Ion1 m/z	Ref.Ion1 Area	Ref.Ion1 Height	Ref.Ion1 Set Ratio	Ref.Ion1 Ratio	Ref.Ion2 m/z	Ref.Ion2 Area	Ref.Ion2 Height	Ref.Ion2 Set Ratio	Ref.Ion2 Ratio	Ref.Ion3 m/z	Ref.Ion3 Area	Ref.Ion3 Height	Ref.Ion3 Set Ratio	Ref.Ion3 Ratio	Ref.Ion4 m/z	Ref.Ion4 Area	Ref.Ion4 Height	Ref.Ion4 Set Ratio	Ref.Ion4 Ratio	Ref.Ion5 m/z	Ref.Ion5 Area	Ref.Ion5 Height	Ref.Ion5 Set Ratio	Ref.Ion5 Ratio	Ret. Index	S/N	Unit	Description	Threshold
1	Glyoxylate (1MEOX) (1TMS )m0	Target	1	160.00	6.419	6.397	6.437	1.520	117	77	0.00295	Auto	3	6.400	Default	0	0	0	0	1370	690	84.50	1170.94	0.00	19	73.00	1370	690	84.50	1170.94	59.00	0	0	49.59	0.00	0	0	0	0	0	0	0	0	0	0	0	0	0	0	0	1219	10.27	mg/L		0.00000
2	Glyoxylate (1MEOX) (1TMS )m1	Target	1	161.00	6.423	6.383	6.450	2.530	81	32	0.00204	Auto	14	6.400	Default	0	0	0	0	1370	690	84.50	1691.36	0.00	29	73.00	1370	690	84.50	1691.36	59.00	0	0	49.59	0.00	0	0	0	0	0	0	0	0	0	0	0	0	0	0	0	1219	1.52	mg/L		0.00000
3	Glyoxylate (1MEOX) (1TMS )m2	Target	1	162.00	6.406	6.383	6.423	1.070	46	43	0.00116	Auto	24	6.400	Default	0	0	0	0	116	125	84.50	252.17	0.00	16	73.00	116	125	84.50	252.17	59.00	142	119	49.59	308.70	0	0	0	0	0	0	0	0	0	0	0	0	0	0	0	1218	4.67	mg/L		0.00000
4	Pyruvate(1MEOX)(1TMS) C1-C3 m0	Target	1	174.00	7.213	7.183	7.253	1.660	288	174	0.00726	Auto	36	7.218	Default	0	0	0	0	1022	677	79.37	354.86	0.00	32	73.00	1022	677	79.37	354.86	128.00	183	101	51.94	63.54	0	0	0	0	0	0	0	0	0	0	0	0	0	0	0	1258	21.37	mg/L		0.00000
5	Pyruvate(1MEOX)(1TMS) C1-C3 m1	Target	1	175.00	7.239	7.213	7.253	1.380	22	16	0.00055	Auto	48	7.218	Default	0	0	0	0	44	59	79.37	200.00	0.00	20	73.00	44	59	79.37	200.00	128.00	259	111	51.94	1177.27	0	0	0	0	0	0	0	0	0	0	0	0	0	0	0	1259	4.80	mg/L		0.00000
6	Pyruvate(1MEOX)(1TMS) C1-C3 m2	Target	1	176.00	7.218	7.193	7.240	2.220	144	65	0.00363	Auto	60	7.218	Default	0	0	0	0	1022	677	79.37	709.72	0.00	27	73.00	1022	677	79.37	709.72	128.00	183	101	51.94	127.08	0	0	0	0	0	0	0	0	0	0	0	0	0	0	0	1258	4.89	mg/L		0.00000
7	Pyruvate(1MEOX)(1TMS) C1-C3 m3	Target	1	177.00	7.216	7.193	7.237	1.240	178	144	0.00448	Auto	71	7.218	Default	0	0	0	0	1022	677	79.37	574.16	0.00	27	73.00	1022	677	79.37	574.16	128.00	183	101	51.94	102.81	0	0	0	0	0	0	0	0	0	0	0	0	0	0	0	1258	9.32	mg/L		0.00000
8	Glycolate(2TMS) m0	Target	1	205.00	8.239	8.200	8.273	2.160	1652	764	0.04162	Auto	82	8.227	Default	0	0	0	0	189999	94812	84.87	11501.15	0.00	67	73.00	189999	94812	84.87	11501.15	177.00	129	62	21.52	7.81	0	0	0	0	0	0	0	0	0	0	0	0	0	0	0	1310	72.27	mg/L		0.00000
9	Glycolate(2TMS) m1	Target	1	206.00	8.239	8.210	8.283	1.550	543	350	0.01368	Auto	91	8.227	Default	0	0	0	0	189999	94812	84.87	34990.61	0.00	67	73.00	189999	94812	84.87	34990.61	177.00	129	62	21.52	23.76	0	0	0	0	0	0	0	0	0	0	0	0	0	0	0	1310	15.82	mg/L		0.00000
10	Glycolate(2TMS) m2	Target	1	207.00	8.209	8.180	8.233	2.290	580	253	0.01461	Auto	100	8.227	Default	0	0	0	0	0	0	84.87	0.00	0.00	4	73.00	0	0	84.87	0.00	177.00	129	62	21.52	22.24	0	0	0	0	0	0	0	0	0	0	0	0	0	0	0	1308	18.74	mg/L		0.00000
11	Alaninealpha(2TMS) C2-C3 m0	Target	1	116.00	8.250	8.197	8.297	1.910	90789	47614	2.28757	Auto	109	8.253	Default	0	0	0	0	90789	47614	81.17	100.00	0.00	75	116.00	90789	47614	81.17	100.00	73.00	190323	94851	49.13	209.63	0	0	0	0	0	0	0	0	0	0	0	0	0	0	0	1311	2975.87	mg/L		0.00000
12	Alaninealpha(2TMS) C2-C3 m1	Target	1	117.00	8.250	8.203	8.303	1.900	171017	90138	4.30903	Auto	115	8.253	Default	0	0	0	0	90789	47614	81.17	53.09	0.00	75	116.00	90789	47614	81.17	53.09	73.00	190323	94851	49.13	111.29	0	0	0	0	0	0	0	0	0	0	0	0	0	0	0	1311	1291.38	mg/L		0.00000
13	Alaninealpha(2TMS) C2-C3 m2	Target	1	118.00	8.250	8.200	8.317	1.960	102199	52128	2.57506	Auto	120	8.253	Default	0	0	0	0	90789	47614	81.17	88.84	0.00	75	116.00	90789	47614	81.17	88.84	73.00	190323	94851	49.13	186.23	0	0	0	0	0	0	0	0	0	0	0	0	0	0	0	1311	1190.14	mg/L		0.00000
14	Valine(2TMS) C1-C2 m0	Target	1	218.00	10.233	10.187	10.277	1.980	5839	2949	0.14712	Auto	125	10.237	Default	0	0	0	0	130275	68863	45.40	2231.12	0.00	66	73.00	130275	68863	45.40	2231.12	145.00	58726	30588	14.31	1005.75	0	0	0	0	0	0	0	0	0	0	0	0	0	0	0	1425	353.88	mg/L		0.00000
15	Valine(2TMS) C1-C2 m1	Target	1	219.00	10.234	10.183	10.273	1.910	12646	6612	0.31863	Auto	132	10.237	Default	0	0	0	0	130275	68863	45.40	1030.17	0.00	66	73.00	130275	68863	45.40	1030.17	145.00	58726	30588	14.31	464.38	0	0	0	0	0	0	0	0	0	0	0	0	0	0	0	1426	432.93	mg/L		0.00000
16	Valine(2TMS) C1-C2 m2	Target	1	220.00	10.232	10.187	10.297	1.820	13381	7335	0.33715	Auto	141	10.237	Default	0	0	0	0	130275	68863	45.40	973.58	0.00	67	73.00	130275	68863	45.40	973.58	145.00	58726	30588	14.31	438.88	0	0	0	0	0	0	0	0	0	0	0	0	0	0	0	1425	1833.75	mg/L		0.00000
17	Valine(2TMS) C2-C5 m0	Target	1	144.00	10.234	10.190	10.280	1.940	18396	9463	0.46351	Auto	148	10.237	Default	0	0	0	0	130275	68863	45.40	708.17	0.00	66	73.00	130275	68863	45.40	708.17	145.00	58726	30588	14.31	319.23	0	0	0	0	0	0	0	0	0	0	0	0	0	0	0	1426	456.05	mg/L		0.00000
18	Valine(2TMS) C2-C5 m1	Target	1	145.00	10.235	10.187	10.290	1.920	58726	30588	1.47969	Auto	156	10.237	Default	0	0	0	0	130275	68863	45.40	221.84	0.00	67	73.00	130275	68863	45.40	221.84	145.00	58726	30588	14.31	100.00	0	0	0	0	0	0	0	0	0	0	0	0	0	0	0	1426	2469.84	mg/L		0.00000
19	Valine(2TMS) C2-C5 m2	Target	1	146.00	10.234	10.163	10.303	1.900	96525	50892	2.43209	Auto	163	10.237	Default	0	0	0	0	130275	68863	45.40	134.97	0.00	66	73.00	130275	68863	45.40	134.97	145.00	58726	30588	14.31	60.84	0	0	0	0	0	0	0	0	0	0	0	0	0	0	0	1426	2993.65	mg/L		0.00000
20	Valine(2TMS) C2-C5 m3	Target	1	147.00	10.233	10.190	10.283	1.860	94415	50649	2.37893	Auto	169	10.237	Default	0	0	0	0	130275	68863	45.40	137.98	0.00	66	73.00	130275	68863	45.40	137.98	145.00	58726	30588	14.31	62.20	0	0	0	0	0	0	0	0	0	0	0	0	0	0	0	1425	217.49	mg/L		0.00000
21	Valine(2TMS) C2-C5 m4	Target	1	148.00	10.233	10.190	10.277	1.910	24206	12651	0.60991	Auto	176	10.237	Default	0	0	0	0	130275	68863	45.40	538.19	0.00	66	73.00	130275	68863	45.40	538.19	145.00	58726	30588	14.31	242.61	0	0	0	0	0	0	0	0	0	0	0	0	0	0	0	1425	1331.68	mg/L		0.00000
22	Serine (2TMS) C2-C3 m0	Target	1	132.00	10.858	10.813	10.933	2.160	8632	3993	0.21750	Auto	184	10.860	Default	0	0	0	0	40693	20182	83.67	471.42	0.00	74	73.00	40693	20182	83.67	471.42	132.00	8632	3993	71.11	100.00	0	0	0	0	0	0	0	0	0	0	0	0	0	0	0	1465	139.29	mg/L		0.00000
23	Serine (2TMS) C2-C3 m1	Target	1	133.00	10.855	10.813	10.947	2.050	17997	8799	0.45346	Auto	191	10.860	Default	0	0	0	0	40693	20182	83.67	226.11	0.00	74	73.00	40693	20182	83.67	226.11	132.00	8632	3993	71.11	47.96	0	0	0	0	0	0	0	0	0	0	0	0	0	0	0	1465	549.94	mg/L		0.00000
24	Serine (2TMS) C2-C3 m2	Target	1	134.00	10.856	10.817	10.900	2.150	9515	4426	0.23974	Auto	199	10.860	Default	0	0	0	0	40693	20182	83.67	427.67	0.00	74	73.00	40693	20182	83.67	427.67	132.00	8632	3993	71.11	90.72	0	0	0	0	0	0	0	0	0	0	0	0	0	0	0	1465	698.84	mg/L		0.00000
25	Serine (2TMS) C2-C3 m0	Target	1	116.00	10.858	10.817	10.913	1.990	9389	4708	0.23657	Auto	207	10.860	Default	0	0	0	0	40693	20182	83.67	433.41	0.00	74	73.00	40693	20182	83.67	433.41	132.00	8632	3993	71.11	91.94	0	0	0	0	0	0	0	0	0	0	0	0	0	0	0	1465	151.87	mg/L		0.00000
26	Serine (2TMS) C2-C3 m1	Target	1	117.00	10.857	10.813	10.923	2.080	19049	9154	0.47997	Auto	215	10.860	Default	0	0	0	0	40693	20182	83.67	213.62	0.00	74	73.00	40693	20182	83.67	213.62	132.00	8632	3993	71.11	45.31	0	0	0	0	0	0	0	0	0	0	0	0	0	0	0	1465	508.56	mg/L		0.00000
27	Serine (2TMS) C2-C3 m2	Target	1	118.00	10.856	10.813	10.900	1.980	12160	6150	0.30639	Auto	223	10.860	Default	0	0	0	0	40693	20182	83.67	334.65	0.00	74	73.00	40693	20182	83.67	334.65	132.00	8632	3993	71.11	70.99	0	0	0	0	0	0	0	0	0	0	0	0	0	0	0	1465	215.03	mg/L		0.00000
28	Leucine(2TMS) C2-C6 m0	Target	1	158.00	11.120	11.073	11.163	1.900	8046	4237	0.20273	Auto	231	11.123	Default	0	0	0	0	94045	51921	35.13	1168.84	0.00	49	73.00	94045	51921	35.13	1168.84	102.00	21988	11848	13.54	273.28	0	0	0	0	0	0	0	0	0	0	0	0	0	0	0	1482	1271.10	mg/L		0.00000
29	Leucine(2TMS) C2-C6 m1	Target	1	159.00	11.118	11.070	11.170	1.870	42448	22759	1.06954	Auto	240	11.123	Default	0	0	0	0	94045	51921	35.13	221.55	0.00	50	73.00	94045	51921	35.13	221.55	102.00	21988	11848	13.54	51.80	0	0	0	0	0	0	0	0	0	0	0	0	0	0	0	1482	1468.32	mg/L		0.00000
30	Leucine(2TMS) C2-C6 m2	Target	1	160.00	11.118	11.063	11.210	1.900	81822	43168	2.06163	Auto	249	11.123	Default	0	0	0	0	94045	51921	35.13	114.94	0.00	52	73.00	94045	51921	35.13	114.94	102.00	21988	11848	13.54	26.87	0	0	0	0	0	0	0	0	0	0	0	0	0	0	0	1482	4544.00	mg/L		0.00000
31	Leucine(2TMS) C2-C6 m3	Target	1	161.00	11.117	11.070	11.180	1.900	87253	45979	2.19847	Auto	257	11.123	Default	0	0	0	0	94045	51921	35.13	107.78	0.00	50	73.00	94045	51921	35.13	107.78	102.00	21988	11848	13.54	25.20	0	0	0	0	0	0	0	0	0	0	0	0	0	0	0	1482	945.36	mg/L		0.00000
32	Leucine(2TMS) C2-C6 m4	Target	1	162.00	11.117	11.063	11.180	1.940	46275	23838	1.16597	Auto	264	11.123	Default	0	0	0	0	94045	51921	35.13	203.23	0.00	50	73.00	94045	51921	35.13	203.23	102.00	21988	11848	13.54	47.52	0	0	0	0	0	0	0	0	0	0	0	0	0	0	0	1482	3667.38	mg/L		0.00000
33	Leucine(2TMS) C2-C6 m5	Target	1	163.00	11.116	11.073	11.147	1.880	13427	7142	0.33831	Auto	273	11.123	Default	0	0	0	0	94045	51921	35.13	700.42	0.00	51	73.00	94045	51921	35.13	700.42	102.00	21988	11848	13.54	163.76	0	0	0	0	0	0	0	0	0	0	0	0	0	0	0	1482	324.64	mg/L		0.00000
34	Isoleucine(2TMS) C2-C6 m0	Target	1	158.00	11.448	11.410	11.493	1.950	5640	2893	0.14211	Auto	283	11.456	Default	0	0	0	0	758	417	14.72	13.44	0.00	39	69.00	758	417	14.72	13.44	75.00	40734	15000	14.53	722.23	0	0	0	0	0	0	0	0	0	0	0	0	0	0	0	1503	86.54	mg/L		0.00000
35	Isoleucine(2TMS) C2-C6 m1	Target	1	159.00	11.450	11.407	11.533	1.880	25343	13454	0.63855	Auto	292	11.456	Default	0	0	0	0	758	417	14.72	2.99	0.00	39	69.00	758	417	14.72	2.99	75.00	40734	15000	14.53	160.73	0	0	0	0	0	0	0	0	0	0	0	0	0	0	0	1503	1922.00	mg/L		0.00000
36	Isoleucine(2TMS) C2-C6 m2	Target	1	160.00	11.449	11.387	11.507	1.940	52141	26946	1.31377	Auto	300	11.456	Default	0	0	0	0	758	417	14.72	1.45	0.00	39	69.00	758	417	14.72	1.45	75.00	40734	15000	14.53	78.12	0	0	0	0	0	0	0	0	0	0	0	0	0	0	0	1503	2245.50	mg/L		0.00000
37	Isoleucine(2TMS) C2-C6 m3	Target	1	161.00	11.448	11.397	11.507	1.850	51964	28141	1.30931	Auto	308	11.456	Default	0	0	0	0	758	417	14.72	1.46	0.00	40	69.00	758	417	14.72	1.46	75.00	40734	15000	14.53	78.39	0	0	0	0	0	0	0	0	0	0	0	0	0	0	0	1503	604.10	mg/L		0.00000
38	Isoleucine(2TMS) C2-C6 m4	Target	1	162.00	11.448	11.387	11.503	1.870	26480	14143	0.66720	Auto	317	11.456	Default	0	0	0	0	758	417	14.72	2.86	0.00	40	69.00	758	417	14.72	2.86	75.00	40734	15000	14.53	153.83	0	0	0	0	0	0	0	0	0	0	0	0	0	0	0	1503	28286.00	mg/L		0.00000
39	Isoleucine(2TMS) C2-C6 m5	Target	1	163.00	11.448	11.403	11.543	1.850	9533	5165	0.24020	Auto	326	11.456	Default	0	0	0	0	758	417	14.72	7.95	0.00	40	69.00	758	417	14.72	7.95	75.00	40734	15000	14.53	427.30	0	0	0	0	0	0	0	0	0	0	0	0	0	0	0	1503	737.86	mg/L		0.00000
40	Proline(2TMS) C2-C5 m0	Target	1	142.00	11.479	11.413	11.530	1.870	7248	3885	0.18262	Auto	335	11.482	Default	0	0	0	0	0	0	37.07	0.00	0.00	54	73.00	0	0	37.07	0.00	143.00	25969	13013	11.49	358.29	0	0	0	0	0	0	0	0	0	0	0	0	0	0	0	1505	1045.96	mg/L		0.00000
41	Proline(2TMS) C2-C5 m1	Target	1	143.00	11.477	11.410	11.543	2.000	25969	13013	0.65433	Auto	342	11.482	Default	0	0	0	0	0	0	37.07	0.00	0.00	55	73.00	0	0	37.07	0.00	143.00	25969	13013	11.49	100.00	0	0	0	0	0	0	0	0	0	0	0	0	0	0	0	1505	141.70	mg/L		0.00000
42	Proline(2TMS) C2-C5 m2	Target	1	144.00	11.476	11.407	11.550	1.990	42929	21550	1.08166	Auto	347	11.482	Default	0	0	0	0	0	0	37.07	0.00	0.00	55	73.00	0	0	37.07	0.00	143.00	25969	13013	11.49	60.49	0	0	0	0	0	0	0	0	0	0	0	0	0	0	0	1505	146.93	mg/L		0.00000
43	Proline(2TMS) C2-C5 m3	Target	1	145.00	11.477	11.427	11.523	1.940	31507	16233	0.79387	Auto	353	11.482	Default	0	0	0	0	0	0	37.07	0.00	0.00	55	73.00	0	0	37.07	0.00	143.00	25969	13013	11.49	82.42	0	0	0	0	0	0	0	0	0	0	0	0	0	0	0	1505	324.66	mg/L		0.00000
44	Proline(2TMS) C2-C5 m4	Target	1	146.00	11.474	11.407	11.520	2.370	14448	6090	0.36404	Auto	358	11.482	Default	0	0	0	0	0	0	37.07	0.00	0.00	54	73.00	0	0	37.07	0.00	143.00	25969	13013	11.49	179.74	0	0	0	0	0	0	0	0	0	0	0	0	0	0	0	1505	104.40	mg/L		0.00000
45	Glycine (3TMS) C2 m0	Target	1	174.00	11.634	11.587	11.693	1.900	273730	143831	6.89704	Auto	363	11.636	Default	0	0	0	0	299246	154308	39.86	109.32	0.00	81	73.00	299246	154308	39.86	109.32	147.00	155134	80929	29.10	56.67	0	0	0	0	0	0	0	0	0	0	0	0	0	0	0	1516	1218.91	mg/L		0.00000
46	Glycine (3TMS) C2 m1	Target	1	175.00	11.634	11.577	11.723	1.870	315542	168694	7.95055	Auto	370	11.636	Default	0	0	0	0	299246	154308	39.86	94.84	0.00	81	73.00	299246	154308	39.86	94.84	147.00	155134	80929	29.10	49.16	0	0	0	0	0	0	0	0	0	0	0	0	0	0	0	1516	15335.82	mg/L		0.00000
47	Succinate(2TMS) C1-C4 m0	Target	1	247.00	11.730	11.713	11.750	1.060	67	63	0.00169	Auto	378	11.683	Default	0	0	0	0	0	0	36.65	0.00	0.00	17	73.00	0	0	36.65	0.00	148.00	0	0	16.10	0.00	0	0	0	0	0	0	0	0	0	0	0	0	0	0	0	1523	15.75	mg/L		0.00000
48	Succinate(2TMS) C1-C4 m1	Target	1	248.00	11.726	11.707	11.763	1.370	70	51	0.00176	Auto	384	11.683	Default	0	0	0	0	0	0	36.65	0.00	0.00	20	73.00	0	0	36.65	0.00	148.00	0	0	16.10	0.00	0	0	0	0	0	0	0	0	0	0	0	0	0	0	0	1523	5.88	mg/L		0.00000
49	Succinate(2TMS) C1-C4 m2	Target	1	249.00	11.717	11.700	11.743	1.170	70	60	0.00176	Auto	389	11.683	Default	0	0	0	0	0	0	36.65	0.00	0.00	25	73.00	0	0	36.65	0.00	148.00	0	0	16.10	0.00	0	0	0	0	0	0	0	0	0	0	0	0	0	0	0	1522	3.57	mg/L		0.00000
50	Succinate(2TMS) C1-C4 m3	Target	1	250.00	11.681	11.673	11.703	0.940	91	97	0.00229	Auto	394	11.683	Default	0	0	0	0	0	0	36.65	0.00	0.00	67	73.00	0	0	36.65	0.00	148.00	1634	1220	16.10	1795.60	0	0	0	0	0	0	0	0	0	0	0	0	0	0	0	1520	4.93	mg/L		0.00000
51	Succinate(2TMS) C1-C4 m4	Target	1	251.00	11.690	11.677	11.717	1.400	222	159	0.00559	Auto	400	11.683	Default	0	0	0	0	0	0	36.65	0.00	0.00	26	73.00	0	0	36.65	0.00	148.00	1634	1220	16.10	736.04	0	0	0	0	0	0	0	0	0	0	0	0	0	0	0	1520	53.00	mg/L		0.00000
52	Fumarate(2TMS) C1-C4 m0	Target	1	245.00	12.199	12.183	12.213	0.910	10	11	0.00025	Auto	407	12.183	Default	0	0	0	0	0	0	64.38	0.00	0.00	21	147.00	0	0	64.38	0.00	73.00	454	251	59.55	4540.00	0	0	0	0	0	0	0	0	0	0	0	0	0	0	0	1556	0.06	mg/L		0.00000
53	Fumarate(2TMS) C1-C4 m1	Target	1	246.00	12.137	12.113	12.183	1.700	211	124	0.00532	Auto	413	12.151	Default	0	0	0	0	602	198	64.38	285.31	0.00	39	147.00	602	198	64.38	285.31	73.00	0	0	59.55	0.00	0	0	0	0	0	0	0	0	0	0	0	0	0	0	0	1552	35.43	mg/L		0.00000
54	Fumarate(2TMS) C1-C4 m2	Target	1	247.00	12.155	12.117	12.163	1.970	75	38	0.00189	Auto	419	12.151	Default	0	0	0	0	602	198	64.38	802.67	0.00	35	147.00	602	198	64.38	802.67	73.00	0	0	59.55	0.00	0	0	0	0	0	0	0	0	0	0	0	0	0	0	0	1553	3.68	mg/L		0.00000
55	Fumarate(2TMS) C1-C4 m3	Target	1	248.00	12.153	12.143	12.233	1.530	23	15	0.00058	Auto	424	12.151	Default	0	0	0	0	602	198	64.38	2617.39	0.00	22	147.00	602	198	64.38	2617.39	73.00	0	0	59.55	0.00	0	0	0	0	0	0	0	0	0	0	0	0	0	0	0	1553	0.56	mg/L		0.00000
56	Fumarate(2TMS) C1-C4 m4	Target	1	249.00	12.160	12.143	12.197	2.080	75	36	0.00189	Auto	429	12.151	Default	0	0	0	0	0	0	64.38	0.00	0.00	27	147.00	0	0	64.38	0.00	73.00	0	0	59.55	0.00	0	0	0	0	0	0	0	0	0	0	0	0	0	0	0	1553	1.35	mg/L		0.00000
57	Serine(3TMS) C2-C3 m0	Target	1	204.00	12.451	12.373	12.513	1.850	12939	6983	0.32602	Auto	433	12.450	Default	0	0	0	0	58708	30983	90.43	453.73	0.00	76	73.00	58708	30983	90.43	453.73	218.00	6002	3555	48.65	46.39	0	0	0	0	0	0	0	0	0	0	0	0	0	0	0	1574	1018.35	mg/L		0.00000
58	Serine(3TMS) C2-C3 m1	Target	1	205.00	12.449	12.397	12.490	1.830	26039	14258	0.65609	Auto	441	12.450	Default	0	0	0	0	58708	30983	90.43	225.46	0.00	77	73.00	58708	30983	90.43	225.46	218.00	6002	3555	48.65	23.05	0	0	0	0	0	0	0	0	0	0	0	0	0	0	0	1574	919.87	mg/L		0.00000
59	Serine(3TMS) C2-C3 m2	Target	1	206.00	12.449	12.400	12.490	1.880	16612	8859	0.41856	Auto	450	12.450	Default	0	0	0	0	58708	30983	90.43	353.41	0.00	75	73.00	58708	30983	90.43	353.41	218.00	6002	3555	48.65	36.13	0	0	0	0	0	0	0	0	0	0	0	0	0	0	0	1574	590.60	mg/L		0.00000
60	Serine(3TMS) C1-C2 m0	Target	1	218.00	12.449	12.410	12.497	1.690	6002	3555	0.15123	Auto	460	12.450	Default	0	0	0	0	58708	30983	90.43	978.14	0.00	76	73.00	58708	30983	90.43	978.14	218.00	6002	3555	48.65	100.00	0	0	0	0	0	0	0	0	0	0	0	0	0	0	0	1574	948.00	mg/L		0.00000
61	Serine(3TMS) C1-C2 m1	Target	1	219.00	12.448	12.403	12.517	1.830	16516	9038	0.41615	Auto	469	12.450	Default	0	0	0	0	58708	30983	90.43	355.46	0.00	72	73.00	58708	30983	90.43	355.46	218.00	6002	3555	48.65	36.34	0	0	0	0	0	0	0	0	0	0	0	0	0	0	0	1574	706.09	mg/L		0.00000
62	Serine(3TMS) C1-C2 m2	Target	1	220.00	12.450	12.407	12.493	1.760	10503	5963	0.26464	Auto	478	12.450	Default	0	0	0	0	58708	30983	90.43	558.96	0.00	74	73.00	58708	30983	90.43	558.96	218.00	6002	3555	48.65	57.15	0	0	0	0	0	0	0	0	0	0	0	0	0	0	0	1574	157.96	mg/L		0.00000
63	Glycerate(3TMS) C1-C3 m0	Target	1	307.00	12.511	12.487	12.543	1.390	197	142	0.00496	Auto	487	12.500	Default	0	0	0	0	0	0	69.46	0.00	0.00	13	147.00	0	0	69.46	0.00	189.00	91	87	46.63	46.19	0	0	0	0	0	0	0	0	0	0	0	0	0	0	0	1578	21.61	mg/L		0.00000
64	Glycerate(3TMS) C1-C3 m1	Target	1	308.00	12.517	12.503	12.533	1.240	21	17	0.00053	Auto	494	12.500	Default	0	0	0	0	0	0	69.46	0.00	0.00	13	147.00	0	0	69.46	0.00	189.00	91	87	46.63	433.33	0	0	0	0	0	0	0	0	0	0	0	0	0	0	0	1578	0.96	mg/L		0.00000
65	Glycerate(3TMS) C1-C3 m2	Target	1	309.00	12.536	12.510	12.563	1.560	287	184	0.00723	Auto	501	12.500	Default	0	0	0	0	0	0	69.46	0.00	0.00	23	147.00	0	0	69.46	0.00	189.00	0	0	46.63	0.00	0	0	0	0	0	0	0	0	0	0	0	0	0	0	0	1580	6.15	mg/L		0.00000
66	Glycerate(3TMS) C1-C3 m3	Target	1	310.00	12.485	12.470	12.493	1.000	10	10	0.00025	Auto	508	12.500	Default	0	0	0	0	0	0	69.46	0.00	0.00	13	147.00	0	0	69.46	0.00	189.00	91	87	46.63	910.00	0	0	0	0	0	0	0	0	0	0	0	0	0	0	0	1576	0.19	mg/L		0.00000
67	Glycerate(3TMS) C1-C2 m0	Target	1	292.00	12.489	12.440	12.510	1.970	122	62	0.00307	Auto	514	12.500	Default	0	0	0	0	0	0	69.46	0.00	0.00	9	147.00	0	0	69.46	0.00	189.00	91	87	46.63	74.59	0	0	0	0	0	0	0	0	0	0	0	0	0	0	0	1576	1.32	mg/L		0.00000
68	Glycerate(3TMS) C1-C2 m1	Target	1	293.00	12.489	12.467	12.537	1.950	80	41	0.00202	Auto	522	12.500	Default	0	0	0	0	0	0	69.46	0.00	0.00	8	147.00	0	0	69.46	0.00	189.00	91	87	46.63	113.75	0	0	0	0	0	0	0	0	0	0	0	0	0	0	0	1576	0.21	mg/L		0.00000
69	Glycerate(3TMS) C1-C2 m2	Target	1	294.00	12.484	12.470	12.503	1.000	47	47	0.00118	Auto	529	12.500	Default	0	0	0	0	0	0	69.46	0.00	0.00	9	147.00	0	0	69.46	0.00	189.00	91	87	46.63	193.62	0	0	0	0	0	0	0	0	0	0	0	0	0	0	0	1576	15.67	mg/L		0.00000
70	Threonine(3TMS) C1-C2 m0	Target	1	291.00	12.835	12.783	12.873	1.790	3254	1819	0.08199	Auto	537	12.840	Default	0	0	0	0	95703	50008	79.37	2941.09	0.00	47	73.00	95703	50008	79.37	2941.09	128.00	1441	910	51.94	44.28	0	0	0	0	0	0	0	0	0	0	0	0	0	0	0	1601	133.10	mg/L		0.00000
71	Threonine(3TMS) C1-C2 m1	Target	1	292.00	12.835	12.787	12.877	1.980	7244	3654	0.18252	Auto	544	12.840	Default	0	0	0	0	95703	50008	79.37	1321.14	0.00	47	73.00	95703	50008	79.37	1321.14	128.00	1441	910	51.94	19.89	0	0	0	0	0	0	0	0	0	0	0	0	0	0	0	1601	487.20	mg/L		0.00000
72	Threonine(3TMS) C1-C2 m2	Target	1	293.00	12.833	12.790	12.887	1.920	8584	4466	0.21629	Auto	551	12.840	Default	0	0	0	0	95703	50008	79.37	1114.90	0.00	47	73.00	95703	50008	79.37	1114.90	128.00	1441	910	51.94	16.79	0	0	0	0	0	0	0	0	0	0	0	0	0	0	0	1601	109.46	mg/L		0.00000
73	Threonine(3TMS) C2-C4 m0	Target	1	218.00	12.836	12.793	12.900	1.990	5321	2678	0.13407	Auto	557	12.840	Default	0	0	0	0	95703	50008	79.37	1798.59	0.00	47	73.00	95703	50008	79.37	1798.59	128.00	1441	910	51.94	27.08	0	0	0	0	0	0	0	0	0	0	0	0	0	0	0	1601	56.83	mg/L		0.00000
74	Threonine(3TMS) C2-C4 m1	Target	1	219.00	12.836	12.770	12.900	1.930	20737	10728	0.52250	Auto	564	12.840	Default	0	0	0	0	95703	50008	79.37	461.51	0.00	47	73.00	95703	50008	79.37	461.51	128.00	1441	910	51.94	6.95	0	0	0	0	0	0	0	0	0	0	0	0	0	0	0	1601	495.83	mg/L		0.00000
75	Threonine(3TMS) C2-C4 m2	Target	1	220.00	12.833	12.783	12.883	1.890	24495	12963	0.61719	Auto	569	12.840	Default	0	0	0	0	95703	50008	79.37	390.70	0.00	47	73.00	95703	50008	79.37	390.70	128.00	1441	910	51.94	5.88	0	0	0	0	0	0	0	0	0	0	0	0	0	0	0	1601	1604.94	mg/L		0.00000
76	Threonine(3TMS) C2-C4 m3	Target	1	221.00	12.832	12.787	12.903	1.860	15989	8598	0.40287	Auto	576	12.840	Default	0	0	0	0	95703	50008	79.37	598.55	0.00	47	73.00	95703	50008	79.37	598.55	128.00	1441	910	51.94	9.01	0	0	0	0	0	0	0	0	0	0	0	0	0	0	0	1601	189.38	mg/L		0.00000
77	Threonine(3TMS) C2-C4 m0	Target	1	291.00	12.835	12.783	12.873	1.790	3254	1819	0.08199	Auto	583	12.840	Default	0	0	0	0	95703	50008	79.37	2941.09	0.00	47	73.00	95703	50008	79.37	2941.09	128.00	1441	910	51.94	44.28	0	0	0	0	0	0	0	0	0	0	0	0	0	0	0	1601	133.10	mg/L		0.00000
78	Threonine(3TMS) C2-C4 m1	Target	1	292.00	12.835	12.787	12.877	1.980	7244	3654	0.18252	Auto	590	12.840	Default	0	0	0	0	95703	50008	79.37	1321.14	0.00	47	73.00	95703	50008	79.37	1321.14	128.00	1441	910	51.94	19.89	0	0	0	0	0	0	0	0	0	0	0	0	0	0	0	1601	487.20	mg/L		0.00000
79	Threonine(3TMS) C2-C4 m2	Target	1	293.00	12.833	12.790	12.887	1.920	8584	4466	0.21629	Auto	597	12.840	Default	0	0	0	0	95703	50008	79.37	1114.90	0.00	47	73.00	95703	50008	79.37	1114.90	128.00	1441	910	51.94	16.79	0	0	0	0	0	0	0	0	0	0	0	0	0	0	0	1601	109.46	mg/L		0.00000
80	Threonine(3TMS) C2-C4 m3	Target	1	294.00	12.834	12.777	12.877	1.770	4837	2738	0.12188	Auto	602	12.840	Default	0	0	0	0	95703	50008	79.37	1978.56	0.00	47	73.00	95703	50008	79.37	1978.56	128.00	1441	910	51.94	29.79	0	0	0	0	0	0	0	0	0	0	0	0	0	0	0	1601	161.06	mg/L		0.00000
81	Aspartate(2TMS) C2-C4 m0	Target	1	160.00	13.226	13.190	13.307	2.010	7316	3636	0.18434	Auto	609	13.250	Default	0	0	0	0	73226	34615	79.37	1000.90	0.00	49	73.00	73226	34615	79.37	1000.90	128.00	823	341	51.94	11.25	0	0	0	0	0	0	0	0	0	0	0	0	0	0	0	1631	120.58	mg/L		0.00000
82	Aspartate(2TMS) C2-C4 m1	Target	1	161.00	13.227	13.180	13.290	2.180	16627	7618	0.41894	Auto	615	13.250	Default	0	0	0	0	73226	34615	79.37	440.40	0.00	49	73.00	73226	34615	79.37	440.40	128.00	823	341	51.94	4.95	0	0	0	0	0	0	0	0	0	0	0	0	0	0	0	1631	346.27	mg/L		0.00000
83	Aspartate(2TMS) C2-C4 m2	Target	1	162.00	13.227	13.173	13.317	2.120	21319	10049	0.53716	Auto	622	13.250	Default	0	0	0	0	73226	34615	79.37	343.48	0.00	49	73.00	73226	34615	79.37	343.48	128.00	823	341	51.94	3.86	0	0	0	0	0	0	0	0	0	0	0	0	0	0	0	1631	78.77	mg/L		0.00000
84	Aspartate(2TMS) C2-C4 m3	Target	1	163.00	13.226	13.160	13.340	2.080	6549	3142	0.16501	Auto	628	13.250	Default	0	0	0	0	73226	34615	79.37	1118.13	0.00	49	73.00	73226	34615	79.37	1118.13	128.00	823	341	51.94	12.57	0	0	0	0	0	0	0	0	0	0	0	0	0	0	0	1631	785.50	mg/L		0.00000
85	Alaninebeta(3TMS) C1-C3 m0	Target	1	290.00	13.343	13.310	13.357	1.690	22	13	0.00055	Auto	636	13.317	Default	0	0	0	0	66	33	81.17	300.00	0.00	13	116.00	66	33	81.17	300.00	73.00	0	0	49.13	0.00	0	0	0	0	0	0	0	0	0	0	0	0	0	0	0	1640	0.87	mg/L		0.00000
86	Alaninebeta(3TMS) C1-C3 m1	Target	1	291.00	13.314	13.287	13.340	1.660	305	184	0.00768	Auto	644	13.317	Default	0	0	0	0	0	0	81.17	0.00	0.00	31	116.00	0	0	81.17	0.00	73.00	1058	746	49.13	346.88	0	0	0	0	0	0	0	0	0	0	0	0	0	0	0	1637	6.28	mg/L		0.00000
87	Alaninebeta(3TMS) C1-C3 m2	Target	1	292.00	13.322	13.287	13.330	1.380	117	85	0.00295	Auto	652	13.317	Default	0	0	0	0	0	0	81.17	0.00	0.00	33	116.00	0	0	81.17	0.00	73.00	1058	746	49.13	904.27	0	0	0	0	0	0	0	0	0	0	0	0	0	0	0	1638	4.05	mg/L		0.00000
88	Alaninebeta(3TMS) C1-C3 m3	Target	1	293.00	13.317	13.297	13.327	1.300	13	10	0.00033	Auto	660	13.317	Default	0	0	0	0	0	0	81.17	0.00	0.00	30	116.00	0	0	81.17	0.00	73.00	1058	746	49.13	8138.46	0	0	0	0	0	0	0	0	0	0	0	0	0	0	0	1637	2.22	mg/L		0.00000
89	Malate(3TMS) C1-C4 m0	Target	1	335.00	14.169	14.147	14.190	1.710	60	35	0.00151	Auto	669	14.160	Default	0	0	0	0	442	336	63.24	736.67	0.00	40	147.00	442	336	63.24	736.67	233.00	62	37	17.93	103.33	0	0	0	0	0	0	0	0	0	0	0	0	0	0	0	1703	1.77	mg/L		0.00000
90	Malate(3TMS) C1-C4 m1	Target	1	336.00	14.181	14.157	14.213	1.650	81	49	0.00204	Auto	677	14.160	Default	0	0	0	0	442	336	63.24	545.68	0.00	26	147.00	442	336	63.24	545.68	233.00	0	0	17.93	0.00	0	0	0	0	0	0	0	0	0	0	0	0	0	0	0	1704	2.62	mg/L		0.00000
91	Malate(3TMS) C1-C4 m2	Target	1	337.00	14.173	14.153	14.203	1.740	40	23	0.00101	Auto	685	14.160	Default	0	0	0	0	442	336	63.24	1105.00	0.00	29	147.00	442	336	63.24	1105.00	233.00	62	37	17.93	155.00	0	0	0	0	0	0	0	0	0	0	0	0	0	0	0	1703	2.71	mg/L		0.00000
92	Malate(3TMS) C1-C4 m3	Target	1	338.00	14.150	14.137	14.173	1.380	22	16	0.00055	Auto	693	14.160	Default	0	0	0	0	0	0	63.24	0.00	0.00	29	147.00	0	0	63.24	0.00	233.00	62	37	17.93	281.82	0	0	0	0	0	0	0	0	0	0	0	0	0	0	0	1701	1.30	mg/L		0.00000
93	Malate(3TMS) C1-C4 m4	Target	1	339.00	14.172	14.143	14.217	2.830	164	58	0.00413	Auto	702	14.160	Default	0	0	0	0	442	336	63.24	269.51	0.00	42	147.00	442	336	63.24	269.51	233.00	62	37	17.93	37.81	0	0	0	0	0	0	0	0	0	0	0	0	0	0	0	1703	14.50	mg/L		0.00000
94	Malate(3TMS) C2-C4 m0	Target	1	233.00	14.158	14.123	14.180	1.680	62	37	0.00156	Auto	709	14.160	Default	0	0	0	0	442	336	63.24	712.90	0.00	36	147.00	442	336	63.24	712.90	233.00	62	37	17.93	100.00	0	0	0	0	0	0	0	0	0	0	0	0	0	0	0	1702	2.06	mg/L		0.00000
95	Malate(3TMS) C2-C4 m1	Target	1	234.00	14.160	14.143	14.177	1.140	32	28	0.00081	Auto	718	14.160	Default	0	0	0	0	442	336	63.24	1381.25	0.00	31	147.00	442	336	63.24	1381.25	233.00	62	37	17.93	193.75	0	0	0	0	0	0	0	0	0	0	0	0	0	0	0	1702	4.31	mg/L		0.00000
96	Malate(3TMS) C2-C4 m2	Target	1	235.00	14.158	14.137	14.190	1.430	63	44	0.00159	Auto	727	14.160	Default	0	0	0	0	442	336	63.24	701.59	0.00	38	147.00	442	336	63.24	701.59	233.00	62	37	17.93	98.41	0	0	0	0	0	0	0	0	0	0	0	0	0	0	0	1702	4.63	mg/L		0.00000
97	Malate(3TMS) C2-C4 m3	Target	1	236.00	14.143	14.113	14.177	1.770	94	53	0.00237	Auto	736	14.160	Default	0	0	0	0	0	0	63.24	0.00	0.00	21	147.00	0	0	63.24	0.00	233.00	62	37	17.93	65.96	0	0	0	0	0	0	0	0	0	0	0	0	0	0	0	1700	53.00	mg/L		0.00000
98	Methionine(2TMS) C2-C5 m0	Target	1	176.00	14.512	14.473	14.530	1.780	260	146	0.00655	Auto	744	14.518	Default	0	0	0	0	0	0	73.15	0.00	0.00	40	128.00	0	0	73.15	0.00	73.00	0	0	35.45	0.00	0	0	0	0	0	0	0	0	0	0	0	0	0	0	0	1731	0.16	mg/L		0.00000
99	Methionine(2TMS) C2-C5 m1	Target	1	177.00	14.513	14.473	14.540	1.640	1884	1146	0.04747	Auto	749	14.518	Default	0	0	0	0	0	0	73.15	0.00	0.00	33	128.00	0	0	73.15	0.00	73.00	0	0	35.45	0.00	0	0	0	0	0	0	0	0	0	0	0	0	0	0	0	1731	17.77	mg/L		0.00000
100	Methionine(2TMS) C2-C5 m2	Target	1	178.00	14.506	14.470	14.533	1.810	1923	1060	0.04845	Auto	755	14.518	Default	0	0	0	0	0	0	73.15	0.00	0.00	31	128.00	0	0	73.15	0.00	73.00	0	0	35.45	0.00	0	0	0	0	0	0	0	0	0	0	0	0	0	0	0	1730	2.11	mg/L		0.00000
101	Methionine(2TMS) C2-C5 m3	Target	1	179.00	14.509	14.483	14.543	1.630	967	595	0.02437	Auto	761	14.518	Default	0	0	0	0	0	0	73.15	0.00	0.00	29	128.00	0	0	73.15	0.00	73.00	0	0	35.45	0.00	0	0	0	0	0	0	0	0	0	0	0	0	0	0	0	1730	23.33	mg/L		0.00000
102	Methionine(2TMS) C2-C5 m4	Target	1	180.00	14.512	14.493	14.540	1.390	446	320	0.01124	Auto	768	14.518	Default	0	0	0	0	0	0	73.15	0.00	0.00	30	128.00	0	0	73.15	0.00	73.00	0	0	35.45	0.00	0	0	0	0	0	0	0	0	0	0	0	0	0	0	0	1731	27.59	mg/L		0.00000
103	Aspartate(3TMS) C2-C4 m0	Target	1	232.00	14.556	14.470	14.633	2.070	22246	10721	0.56052	Auto	773	14.566	Default	0	0	0	0	231660	114268	79.37	1041.36	0.00	48	73.00	231660	114268	79.37	1041.36	128.00	963	355	51.94	4.33	0	0	0	0	0	0	0	0	0	0	0	0	0	0	0	1734	108.95	mg/L		0.00000
104	Aspartate(3TMS) C2-C4 m1	Target	1	233.00	14.555	14.510	14.597	1.930	56866	29424	1.43282	Auto	779	14.566	Default	0	0	0	0	231660	114268	79.37	407.38	0.00	48	73.00	231660	114268	79.37	407.38	128.00	963	355	51.94	1.69	0	0	0	0	0	0	0	0	0	0	0	0	0	0	0	1734	1077.50	mg/L		0.00000
105	Aspartate(3TMS) C2-C4 m2	Target	1	234.00	14.555	14.497	14.653	1.990	66524	33426	1.67617	Auto	788	14.566	Default	0	0	0	0	231660	114268	79.37	348.24	0.00	48	73.00	231660	114268	79.37	348.24	128.00	963	355	51.94	1.45	0	0	0	0	0	0	0	0	0	0	0	0	0	0	0	1734	3932.47	mg/L		0.00000
106	Aspartate(3TMS) C2-C4 m3	Target	1	235.00	14.554	14.513	14.653	1.870	33347	17791	0.84023	Auto	796	14.566	Default	0	0	0	0	231660	114268	79.37	694.70	0.00	48	73.00	231660	114268	79.37	694.70	128.00	963	355	51.94	2.89	0	0	0	0	0	0	0	0	0	0	0	0	0	0	0	1734	1482.58	mg/L		0.00000
107	2oxoglutarate(1MEOX)(2TMS) C1-C5 m5	Target	1	293.00	15.199	15.190	15.217	0.890	16	18	0.00040	Auto	804	15.222	Default	0	0	0	0	1939	1010	63.24	12118.75	0.00	40	147.00	1939	1010	63.24	12118.75	233.00	0	0	17.93	0.00	0	0	0	0	0	0	0	0	0	0	0	0	0	0	0	1787	2.39	mg/L		0.00000
108	2oxoglutarate(1MEOX)(2TMS) C1-C5 m0	Target	1	288.00	15.245	15.220	15.277	1.860	93	50	0.00234	Auto	813	15.222	Default	0	0	0	0	1554	785	63.24	1670.97	0.00	21	147.00	1554	785	63.24	1670.97	233.00	0	0	17.93	0.00	0	0	0	0	0	0	0	0	0	0	0	0	0	0	0	1790	3.76	mg/L		0.00000
109	2oxoglutarate(1MEOX)(2TMS) C1-C5 m1	Target	1	289.00	15.243	15.230	15.273	1.140	8	7	0.00020	Auto	821	15.222	Default	0	0	0	0	1554	785	63.24	19425.00	0.00	27	147.00	1554	785	63.24	19425.00	233.00	0	0	17.93	0.00	0	0	0	0	0	0	0	0	0	0	0	0	0	0	0	1790	0.54	mg/L		0.00000
110	2oxoglutarate(1MEOX)(2TMS) C1-C5 m2	Target	1	290.00	15.207	15.170	15.253	2.710	141	52	0.00355	Auto	829	15.222	Default	0	0	0	0	1939	1010	63.24	1375.18	0.00	23	147.00	1939	1010	63.24	1375.18	233.00	115	43	17.93	81.56	0	0	0	0	0	0	0	0	0	0	0	0	0	0	0	1787	11.56	mg/L		0.00000
111	2oxoglutarate(1MEOX)(2TMS) C1-C5 m3	Target	1	291.00	15.208	15.183	15.220	1.420	37	26	0.00093	Auto	838	15.222	Default	0	0	0	0	1939	1010	63.24	5240.54	0.00	26	147.00	1939	1010	63.24	5240.54	233.00	115	43	17.93	310.81	0	0	0	0	0	0	0	0	0	0	0	0	0	0	0	1787	4.48	mg/L		0.00000
112	2oxoglutarate(1MEOX)(2TMS) C1-C5 m4	Target	1	292.00	15.262	15.217	15.297	2.960	216	73	0.00544	Auto	847	15.222	Default	0	0	0	0	1554	785	63.24	719.44	0.00	47	147.00	1554	785	63.24	719.44	233.00	0	0	17.93	0.00	0	0	0	0	0	0	0	0	0	0	0	0	0	0	0	1792	2.93	mg/L		0.00000
113	Glutamate(3TMS) C2-C5 m0	Target	1	246.00	15.740	15.697	15.830	1.940	9527	4902	0.24005	Auto	855	15.745	Default	0	0	0	0	113497	61462	79.37	1191.32	0.00	66	73.00	113497	61462	79.37	1191.32	128.00	9691	5027	51.94	101.72	0	0	0	0	0	0	0	0	0	0	0	0	0	0	0	1833	357.44	mg/L		0.00000
114	Glutamate(3TMS) C2-C5 m1	Target	1	247.00	15.741	15.690	15.817	1.940	33516	17249	0.84449	Auto	861	15.745	Default	0	0	0	0	113497	61462	79.37	338.63	0.00	67	73.00	113497	61462	79.37	338.63	128.00	9691	5027	51.94	28.91	0	0	0	0	0	0	0	0	0	0	0	0	0	0	0	1833	1437.42	mg/L		0.00000
115	Glutamate(3TMS) C2-C5 m2	Target	1	248.00	15.741	15.690	15.823	1.930	52869	27435	1.33211	Auto	867	15.745	Default	0	0	0	0	113497	61462	79.37	214.68	0.00	66	73.00	113497	61462	79.37	214.68	128.00	9691	5027	51.94	18.33	0	0	0	0	0	0	0	0	0	0	0	0	0	0	0	1833	2385.65	mg/L		0.00000
116	Glutamate(3TMS) C2-C5 m3	Target	1	249.00	15.740	15.693	15.800	1.820	44299	24312	1.11618	Auto	872	15.745	Default	0	0	0	0	113497	61462	79.37	256.21	0.00	67	73.00	113497	61462	79.37	256.21	128.00	9691	5027	51.94	21.88	0	0	0	0	0	0	0	0	0	0	0	0	0	0	0	1832	244.90	mg/L		0.00000
117	Glutamate(3TMS) C2-C5 m4	Target	1	250.00	15.740	15.697	15.797	1.900	16630	8745	0.41902	Auto	877	15.745	Default	0	0	0	0	113497	61462	79.37	682.48	0.00	68	73.00	113497	61462	79.37	682.48	128.00	9691	5027	51.94	58.27	0	0	0	0	0	0	0	0	0	0	0	0	0	0	0	1832	3498.00	mg/L		0.00000
118	Phenylalanine(2TMS) C1-C2 m0	Target	1	218.00	15.831	15.787	15.880	1.920	16863	8765	0.42489	Auto	883	15.830	Default	0	0	0	0	85291	46277	79.37	505.79	0.00	40	73.00	85291	46277	79.37	505.79	128.00	45	39	51.94	0.27	0	0	0	0	0	0	0	0	0	0	0	0	0	0	0	1840	273.91	mg/L		0.00000
119	Phenylalanine(2TMS) C1-C2 m1	Target	1	219.00	15.830	15.783	15.880	1.880	34862	18592	0.87840	Auto	890	15.830	Default	0	0	0	0	85291	46277	79.37	244.65	0.00	40	73.00	85291	46277	79.37	244.65	128.00	45	39	51.94	0.13	0	0	0	0	0	0	0	0	0	0	0	0	0	0	0	1840	217.27	mg/L		0.00000
120	Phenylalanine(2TMS) C1-C2 m2	Target	1	220.00	15.828	15.783	15.883	1.830	24207	13193	0.60993	Auto	898	15.830	Default	0	0	0	0	85291	46277	79.37	352.34	0.00	40	73.00	85291	46277	79.37	352.34	128.00	0	0	51.94	0.00	0	0	0	0	0	0	0	0	0	0	0	0	0	0	0	1840	94.82	mg/L		0.00000
121	Phenylalanine(2TMS) C2-C9 m0	Target	1	192.00	15.839	15.793	15.863	1.590	533	335	0.01343	Auto	904	15.830	Default	0	0	0	0	85291	46277	79.37	16002.06	0.00	41	73.00	85291	46277	79.37	16002.06	128.00	45	39	51.94	8.44	0	0	0	0	0	0	0	0	0	0	0	0	0	0	0	1841	4.50	mg/L		0.00000
122	Phenylalanine(2TMS) C2-C9 m1	Target	1	193.00	15.831	15.793	15.880	1.810	1434	794	0.03613	Auto	912	15.830	Default	0	0	0	0	85291	46277	79.37	5947.77	0.00	40	73.00	85291	46277	79.37	5947.77	128.00	45	39	51.94	3.14	0	0	0	0	0	0	0	0	0	0	0	0	0	0	0	1840	42.75	mg/L		0.00000
123	Phenylalanine(2TMS) C2-C9 m2	Target	1	194.00	15.831	15.783	15.877	1.950	6948	3569	0.17507	Auto	919	15.830	Default	0	0	0	0	85291	46277	79.37	1227.56	0.00	41	73.00	85291	46277	79.37	1227.56	128.00	45	39	51.94	0.65	0	0	0	0	0	0	0	0	0	0	0	0	0	0	0	1840	114.21	mg/L		0.00000
124	Phenylalanine(2TMS) C2-C9 m3	Target	1	195.00	15.829	15.780	15.890	1.900	12708	6680	0.32020	Auto	926	15.830	Default	0	0	0	0	85291	46277	79.37	671.16	0.00	40	73.00	85291	46277	79.37	671.16	128.00	45	39	51.94	0.35	0	0	0	0	0	0	0	0	0	0	0	0	0	0	0	1840	1214.55	mg/L		0.00000
125	Phenylalanine(2TMS) C2-C9 m4	Target	1	196.00	15.829	15.767	15.883	1.840	12957	7046	0.32647	Auto	933	15.830	Default	0	0	0	0	85291	46277	79.37	658.26	0.00	40	73.00	85291	46277	79.37	658.26	128.00	0	0	51.94	0.00	0	0	0	0	0	0	0	0	0	0	0	0	0	0	0	1840	478.43	mg/L		0.00000
126	Phenylalanine(2TMS) C2-C9 m5	Target	1	197.00	15.831	15.787	15.913	2.010	13882	6899	0.34978	Auto	941	15.830	Default	0	0	0	0	85291	46277	79.37	614.40	0.00	40	73.00	85291	46277	79.37	614.40	128.00	45	39	51.94	0.32	0	0	0	0	0	0	0	0	0	0	0	0	0	0	0	1840	287.46	mg/L		0.00000
127	Phenylalanine(2TMS) C2-C9 m6	Target	1	198.00	15.829	15.787	15.880	1.870	7546	4043	0.19013	Auto	949	15.830	Default	0	0	0	0	85291	46277	79.37	1130.28	0.00	40	73.00	85291	46277	79.37	1130.28	128.00	45	39	51.94	0.60	0	0	0	0	0	0	0	0	0	0	0	0	0	0	0	1840	214.40	mg/L		0.00000
128	Phenylalanine(2TMS) C2-C9 m7	Target	1	199.00	15.825	15.790	15.920	1.980	2087	1054	0.05259	Auto	957	15.830	Default	0	0	0	0	85291	46277	79.37	4086.78	0.00	39	73.00	85291	46277	79.37	4086.78	128.00	0	0	51.94	0.00	0	0	0	0	0	0	0	0	0	0	0	0	0	0	0	1840	175.67	mg/L		0.00000
129	Phenylalanine(2TMS) C2-C9 m8	Target	1	200.00	15.828	15.773	15.863	2.080	430	207	0.01083	Auto	965	15.830	Default	0	0	0	0	85291	46277	79.37	19835.12	0.00	40	73.00	85291	46277	79.37	19835.12	128.00	0	0	51.94	0.00	0	0	0	0	0	0	0	0	0	0	0	0	0	0	0	1840	12.74	mg/L		0.00000
130	Asparagine(3TMS) C2-C4 m0	Target	1	231.00	16.384	16.350	16.440	1.990	253	127	0.00637	Auto	973	16.359	Default	0	0	0	0	422	286	79.37	166.80	0.00	21	73.00	422	286	79.37	166.80	128.00	0	0	51.94	0.00	0	0	0	0	0	0	0	0	0	0	0	0	0	0	0	1888	11.36	mg/L		0.00000
131	Asparagine(3TMS) C2-C4 m1	Target	1	232.00	16.360	16.347	16.387	1.220	11	9	0.00028	Auto	982	16.359	Default	0	0	0	0	422	286	79.37	3836.36	0.00	19	73.00	422	286	79.37	3836.36	128.00	46	30	51.94	418.18	0	0	0	0	0	0	0	0	0	0	0	0	0	0	0	1886	0.59	mg/L		0.00000
132	Asparagine(3TMS) C2-C4 m2	Target	1	233.00	Not Identified									16.359	Default	0	0	0	0																																				
133	Asparagine(3TMS) C2-C4 m3	Target	1	234.00	16.370	16.353	16.400	1.400	66	47	0.00166	Auto	1001	16.359	Default	0	0	0	0	422	286	79.37	639.39	0.00	17	73.00	422	286	79.37	639.39	128.00	46	30	51.94	69.70	0	0	0	0	0	0	0	0	0	0	0	0	0	0	0	1887	2.61	mg/L		0.00000
134	Asparagine(2TMS) C2-C4 m0	Target	1	159.00	16.823	16.800	16.837	1.200	90	75	0.00227	Auto	1011	16.821	Default	0	0	0	0	575	343	79.37	638.89	0.00	21	73.00	575	343	79.37	638.89	128.00	0	0	51.94	0.00	0	0	0	0	0	0	0	0	0	0	0	0	0	0	0	1926	0.34	mg/L		0.00000
135	Asparagine(2TMS) C2-C4 m1	Target	1	160.00	16.767	16.750	16.817	2.480	62	25	0.00156	Auto	1018	16.821	Default	0	0	0	0	0	0	79.37	0.00	0.00	12	73.00	0	0	79.37	0.00	128.00	0	0	51.94	0.00	0	0	0	0	0	0	0	0	0	0	0	0	0	0	0	1921	0.12	mg/L		0.00000
136	Asparagine(2TMS) C2-C4 m2	Target	1	161.00	16.840	16.823	16.890	1.780	32	18	0.00081	Auto	1026	16.821	Default	0	0	0	0	204	189	79.37	637.50	0.00	19	73.00	204	189	79.37	637.50	128.00	53	45	51.94	165.63	0	0	0	0	0	0	0	0	0	0	0	0	0	0	0	1927	0.32	mg/L		0.00000
137	Asparagine(2TMS) C2-C4 m3	Target	1	162.00	16.821	16.803	16.857	2.000	92	46	0.00232	Auto	1033	16.821	Default	0	0	0	0	575	343	79.37	625.00	0.00	17	73.00	575	343	79.37	625.00	128.00	0	0	51.94	0.00	0	0	0	0	0	0	0	0	0	0	0	0	0	0	0	1926	0.22	mg/L		0.00000
138	Adonitol (5TMS) exp	ISTD	1	73.00	17.129	17.080	17.193	1.970	2116290	1074530	1.00000	Auto	1039	17.140	Default	0	0	0	0	1142976	585232	76.90	54.01	0.00	94	217.00	1142976	585232	76.90	54.01	147.00	1042126	529578	62.84	49.24	0	0	0	0	0	0	0	0	0	0	0	0	0	0	0	1952	1365.85	mg/L		0.00000
139	Xylitol (5TMS) exp	Target	1	217.00	17.129	17.080	17.187	1.950	1142976	585232	28.79900	Auto	1042	17.140	Default	0	0	0	0	2116290	1074530	99.01	185.16	0.00	92	73.00	2116290	1074530	99.01	185.16	147.00	1042126	529578	59.48	91.18	0	0	0	0	0	0	0	0	0	0	0	0	0	0	0	1952	1983.84	mg/L		0.00000
140	Glutamine(3TMS) C2-C5 m0	Target	1	245.00	17.589	17.547	17.603	2.170	573	264	0.01444	Auto	1045	17.540	Default	0	0	0	0	9674	5232	79.37	1688.31	0.00	41	73.00	9674	5232	79.37	1688.31	128.00	410	201	51.94	71.55	0	0	0	0	0	0	0	0	0	0	0	0	0	0	0	1991	7.74	mg/L		0.00000
141	Glutamine(3TMS) C2-C5 m1	Target	1	246.00	17.527	17.507	17.543	1.270	19	15	0.00048	Auto	1054	17.540	Default	0	0	0	0	0	0	79.37	0.00	0.00	12	73.00	0	0	79.37	0.00	128.00	68	45	51.94	357.89	0	0	0	0	0	0	0	0	0	0	0	0	0	0	0	1986	3.00	mg/L		0.00000
142	Glutamine(3TMS) C2-C5 m2	Target	1	247.00	17.539	17.497	17.560	1.560	145	93	0.00365	Auto	1062	17.540	Default	0	0	0	0	0	0	79.37	0.00	0.00	19	73.00	0	0	79.37	0.00	128.00	68	45	51.94	46.90	0	0	0	0	0	0	0	0	0	0	0	0	0	0	0	1987	31.00	mg/L		0.00000
143	Glutamine(3TMS) C2-C5 m3	Target	1	248.00	17.547	17.523	17.553	1.270	38	30	0.00096	Auto	1071	17.540	Default	0	0	0	0	0	0	79.37	0.00	0.00	21	73.00	0	0	79.37	0.00	128.00	68	45	51.94	178.95	0	0	0	0	0	0	0	0	0	0	0	0	0	0	0	1987	2.29	mg/L		0.00000
144	Glutamine(3TMS) C2-C5 m4	Target	1	249.00	17.530	17.520	17.557	1.440	23	16	0.00058	Auto	1080	17.540	Default	0	0	0	0	0	0	79.37	0.00	0.00	12	73.00	0	0	79.37	0.00	128.00	68	45	51.94	295.65	0	0	0	0	0	0	0	0	0	0	0	0	0	0	0	1986	1.11	mg/L		0.00000
145	Ornithine(4TMS) C1-C5 m0	Target	1	420.00	18.193	18.170	18.220	1.580	239	151	0.00602	Auto	1088	18.195	Default	0	0	0	0	0	0	79.37	0.00	0.00	8	73.00	0	0	79.37	0.00	128.00	76	64	51.94	31.80	0	0	0	0	0	0	0	0	0	0	0	0	0	0	0	2034	8.61	mg/L		0.00000
146	Ornithine(4TMS) C1-C5 m1	Target	1	421.00	18.195	18.150	18.220	2.470	94	38	0.00237	Auto	1094	18.195	Default	0	0	0	0	0	0	79.37	0.00	0.00	6	73.00	0	0	79.37	0.00	128.00	76	64	51.94	80.85	0	0	0	0	0	0	0	0	0	0	0	0	0	0	0	2034	5.91	mg/L		0.00000
147	Ornithine(4TMS) C1-C5 m2	Target	1	422.00	18.222	18.200	18.243	1.320	33	25	0.00083	Auto	1100	18.195	Default	0	0	0	0	0	0	79.37	0.00	0.00	28	73.00	0	0	79.37	0.00	128.00	76	64	51.94	230.30	0	0	0	0	0	0	0	0	0	0	0	0	0	0	0	2036	1.92	mg/L		0.00000
148	Ornithine(4TMS) C1-C5 m3	Target	1	423.00	18.210	18.193	18.223	1.090	12	11	0.00030	Auto	1107	18.195	Default	0	0	0	0	0	0	79.37	0.00	0.00	14	73.00	0	0	79.37	0.00	128.00	76	64	51.94	633.33	0	0	0	0	0	0	0	0	0	0	0	0	0	0	0	2035	0.63	mg/L		0.00000
149	Ornithine(4TMS) C1-C5 m4	Target	1	424.00	18.210	18.190	18.220	1.330	36	27	0.00091	Auto	1112	18.195	Default	0	0	0	0	0	0	79.37	0.00	0.00	8	73.00	0	0	79.37	0.00	128.00	76	64	51.94	211.11	0	0	0	0	0	0	0	0	0	0	0	0	0	0	0	2035	2.56	mg/L		0.00000
150	Ornithine(4TMS) C1-C5 m5	Target	1	425.00	18.215	18.197	18.227	1.090	12	11	0.00030	Auto	1119	18.195	Default	0	0	0	0	0	0	79.37	0.00	0.00	11	73.00	0	0	79.37	0.00	128.00	76	64	51.94	633.33	0	0	0	0	0	0	0	0	0	0	0	0	0	0	0	2035	1.92	mg/L		0.00000
151	Citrate(4TMS) C1-C6 m0	Target	1	465.00	18.303	18.287	18.330	1.610	66	41	0.00166	Auto	1126	18.292	Default	0	0	0	0	0	0	99.76	0.00	0.00	13	73.00	0	0	99.76	0.00	147.00	0	0	73.77	0.00	0	0	0	0	0	0	0	0	0	0	0	0	0	0	0	2041	2.89	mg/L		0.00000
152	Citrate(4TMS) C1-C6 m1	Target	1	466.00	18.297	18.253	18.307	2.230	96	43	0.00242	Auto	1129	18.292	Default	0	0	0	0	0	0	99.76	0.00	0.00	8	73.00	0	0	99.76	0.00	147.00	0	0	73.77	0.00	0	0	0	0	0	0	0	0	0	0	0	0	0	0	0	2041	1.43	mg/L		0.00000
153	Citrate(4TMS) C1-C6 m2	Target	1	467.00	18.303	18.280	18.333	1.620	68	42	0.00171	Auto	1136	18.292	Default	0	0	0	0	0	0	99.76	0.00	0.00	12	73.00	0	0	99.76	0.00	147.00	0	0	73.77	0.00	0	0	0	0	0	0	0	0	0	0	0	0	0	0	0	2041	7.00	mg/L		0.00000
154	Citrate(4TMS) C1-C6 m3	Target	1	468.00	18.309	18.293	18.340	1.300	52	40	0.00131	Auto	1142	18.292	Default	0	0	0	0	0	0	99.76	0.00	0.00	6	73.00	0	0	99.76	0.00	147.00	0	0	73.77	0.00	0	0	0	0	0	0	0	0	0	0	0	0	0	0	0	2042	1.51	mg/L		0.00000
155	Citrate(4TMS) C1-C6 m4	Target	1	469.00	18.269	18.250	18.280	1.190	19	16	0.00048	Auto	1146	18.292	Default	0	0	0	0	0	0	99.76	0.00	0.00	17	73.00	0	0	99.76	0.00	147.00	0	0	73.77	0.00	0	0	0	0	0	0	0	0	0	0	0	0	0	0	0	2039	2.18	mg/L		0.00000
156	Citrate(4TMS) C1-C6 m5	Target	1	470.00	18.281	18.267	18.290	0.940	15	16	0.00038	Auto	1151	18.292	Default	0	0	0	0	0	0	99.76	0.00	0.00	15	73.00	0	0	99.76	0.00	147.00	0	0	73.77	0.00	0	0	0	0	0	0	0	0	0	0	0	0	0	0	0	2040	1.20	mg/L		0.00000
157	Citrate(4TMS) C1-C6 m6	Target	1	471.00	18.277	18.257	18.303	2.140	62	29	0.00156	Auto	1157	18.292	Default	0	0	0	0	0	0	99.76	0.00	0.00	19	73.00	0	0	99.76	0.00	147.00	0	0	73.77	0.00	0	0	0	0	0	0	0	0	0	0	0	0	0	0	0	2039	14.50	mg/L		0.00000
158	Citrate(4TMS) C1-C5 m0	Target	1	273.00	18.283	18.263	18.310	1.500	129	86	0.00325	Auto	1163	18.292	Default	0	0	0	0	0	0	99.76	0.00	0.00	20	73.00	0	0	99.76	0.00	147.00	0	0	73.77	0.00	0	0	0	0	0	0	0	0	0	0	0	0	0	0	0	2040	12.48	mg/L		0.00000
159	Citrate(4TMS) C1-C5 m1	Target	1	274.00	18.272	18.243	18.297	1.610	273	170	0.00688	Auto	1169	18.292	Default	0	0	0	0	0	0	99.76	0.00	0.00	22	73.00	0	0	99.76	0.00	147.00	0	0	73.77	0.00	0	0	0	0	0	0	0	0	0	0	0	0	0	0	0	2039	12.25	mg/L		0.00000
160	Citrate(4TMS) C1-C5 m2	Target	1	275.00	18.308	18.290	18.353	2.460	59	24	0.00149	Auto	1176	18.292	Default	0	0	0	0	0	0	99.76	0.00	0.00	15	73.00	0	0	99.76	0.00	147.00	0	0	73.77	0.00	0	0	0	0	0	0	0	0	0	0	0	0	0	0	0	2042	5.49	mg/L		0.00000
161	Citrate(4TMS) C1-C5 m3	Target	1	276.00	18.315	18.287	18.347	1.950	80	41	0.00202	Auto	1182	18.292	Default	0	0	0	0	0	0	99.76	0.00	0.00	0	73.00	0	0	99.76	0.00	147.00	0	0	73.77	0.00	0	0	0	0	0	0	0	0	0	0	0	0	0	0	0	2042	3.67	mg/L		0.00000
162	Citrate(4TMS) C1-C5 m4	Target	1	277.00	18.277	18.257	18.317	1.450	138	95	0.00348	Auto	1185	18.292	Default	0	0	0	0	0	0	99.76	0.00	0.00	22	73.00	0	0	99.76	0.00	147.00	0	0	73.77	0.00	0	0	0	0	0	0	0	0	0	0	0	0	0	0	0	2039	4.36	mg/L		0.00000
163	Citrate(4TMS) C1-C5 m5	Target	1	278.00	18.282	18.240	18.323	2.530	76	30	0.00191	Auto	1189	18.292	Default	0	0	0	0	0	0	99.76	0.00	0.00	23	73.00	0	0	99.76	0.00	147.00	0	0	73.77	0.00	0	0	0	0	0	0	0	0	0	0	0	0	0	0	0	2040	40.00	mg/L		0.00000
164	Citrate(4TMS) C1-C5 m0	Target	1	363.00	18.263	18.243	18.280	1.550	17	11	0.00043	Auto	1194	18.292	Default	0	0	0	0	0	0	99.76	0.00	0.00	14	73.00	0	0	99.76	0.00	147.00	0	0	73.77	0.00	0	0	0	0	0	0	0	0	0	0	0	0	0	0	0	2039	2.75	mg/L		0.00000
165	Citrate(4TMS) C1-C5 m1	Target	1	364.00	18.312	18.290	18.333	1.360	38	28	0.00096	Auto	1202	18.292	Default	0	0	0	0	0	0	99.76	0.00	0.00	6	73.00	0	0	99.76	0.00	147.00	0	0	73.77	0.00	0	0	0	0	0	0	0	0	0	0	0	0	0	0	0	2042	6.36	mg/L		0.00000
166	Citrate(4TMS) C1-C5 m2	Target	1	365.00	18.258	18.240	18.307	2.060	33	16	0.00083	Auto	1206	18.292	Default	0	0	0	0	0	0	99.76	0.00	0.00	14	73.00	0	0	99.76	0.00	147.00	0	0	73.77	0.00	0	0	0	0	0	0	0	0	0	0	0	0	0	0	0	2038	0.71	mg/L		0.00000
167	Citrate(4TMS) C1-C5 m3	Target	1	366.00	18.307	18.287	18.320	1.380	40	29	0.00101	Auto	1213	18.292	Default	0	0	0	0	0	0	99.76	0.00	0.00	12	73.00	0	0	99.76	0.00	147.00	0	0	73.77	0.00	0	0	0	0	0	0	0	0	0	0	0	0	0	0	0	2041	2.23	mg/L		0.00000
168	Citrate(4TMS) C1-C5 m4	Target	1	367.00	18.297	18.280	18.307	1.090	12	11	0.00030	Auto	1219	18.292	Default	0	0	0	0	0	0	99.76	0.00	0.00	6	73.00	0	0	99.76	0.00	147.00	0	0	73.77	0.00	0	0	0	0	0	0	0	0	0	0	0	0	0	0	0	2041	1.03	mg/L		0.00000
169	Citrate(4TMS) C1-C5 m5	Target	1	368.00	18.285	18.243	18.330	3.260	124	38	0.00312	Auto	1224	18.292	Default	0	0	0	0	0	0	99.76	0.00	0.00	12	73.00	0	0	99.76	0.00	147.00	0	0	73.77	0.00	0	0	0	0	0	0	0	0	0	0	0	0	0	0	0	2040	3.17	mg/L		0.00000
170	Fructose(1MEOX)(5TMS)iso1 C4-C6 m0 	Target	1	307.00	Not Identified									19.302	Default	0	0	0	0																																				
171	Fructose(1MEOX)(5TMS)iso1 C4-C6 m1	Target	1	308.00	19.254	19.223	19.277	2.150	58	27	0.00146	Auto	1228	19.302	Default	0	0	0	0	0	0	88.94	0.00	0.00	15	103.00	0	0	88.94	0.00	217.00	0	0	86.99	0.00	0	0	0	0	0	0	0	0	0	0	0	0	0	0	0	2105	1.17	mg/L		0.00000
172	Fructose(1MEOX)(5TMS)iso1 C4-C6 m2	Target	1	309.00	19.295	19.273	19.333	2.140	141	66	0.00355	Auto	1230	19.302	Default	0	0	0	0	0	0	88.94	0.00	0.00	23	103.00	0	0	88.94	0.00	217.00	0	0	86.99	0.00	0	0	0	0	0	0	0	0	0	0	0	0	0	0	0	2107	9.71	mg/L		0.00000
173	Fructose(1MEOX)(5TMS)iso1 C4-C6 m3	Target	1	310.00	19.367	19.327	19.393	2.140	30	14	0.00076	Auto	1233	19.302	Default	0	0	0	0	0	0	88.94	0.00	0.00	6	103.00	0	0	88.94	0.00	217.00	0	0	86.99	0.00	0	0	0	0	0	0	0	0	0	0	0	0	0	0	0	2111	3.50	mg/L		0.00000
174	Fructose(1MEOX)(5TMS)iso1 C1-C4 m0 	Target	1	364.00	19.282	19.263	19.293	1.310	21	16	0.00053	Auto	1235	19.302	Default	0	0	0	0	0	0	88.94	0.00	0.00	18	103.00	0	0	88.94	0.00	217.00	0	0	86.99	0.00	0	0	0	0	0	0	0	0	0	0	0	0	0	0	0	2106	4.57	mg/L		0.00000
175	Fructose(1MEOX)(5TMS)iso1 C1-C4 m1 	Target	1	365.00	19.307	19.290	19.317	1.380	47	34	0.00118	Auto	1240	19.302	Default	0	0	0	0	0	0	88.94	0.00	0.00	19	103.00	0	0	88.94	0.00	217.00	0	0	86.99	0.00	0	0	0	0	0	0	0	0	0	0	0	0	0	0	0	2108	6.18	mg/L		0.00000
176	Fructose(1MEOX)(5TMS)iso1 C1-C4 m2 	Target	1	366.00	19.320	19.303	19.337	1.080	14	13	0.00035	Auto	1244	19.302	Default	0	0	0	0	0	0	88.94	0.00	0.00	16	103.00	0	0	88.94	0.00	217.00	0	0	86.99	0.00	0	0	0	0	0	0	0	0	0	0	0	0	0	0	0	2108	1.04	mg/L		0.00000
177	Fructose(1MEOX)(5TMS)iso1 C1-C4 m3	Target	1	367.00	19.311	19.290	19.333	1.630	62	38	0.00156	Auto	1248	19.302	Default	0	0	0	0	0	0	88.94	0.00	0.00	23	103.00	0	0	88.94	0.00	217.00	0	0	86.99	0.00	0	0	0	0	0	0	0	0	0	0	0	0	0	0	0	2108	10.86	mg/L		0.00000
178	Fructose(1MEOX)(5TMS)iso1 C1-C4 m4	Target	1	368.00	19.307	19.290	19.333	1.420	44	31	0.00111	Auto	1252	19.302	Default	0	0	0	0	0	0	88.94	0.00	0.00	19	103.00	0	0	88.94	0.00	217.00	0	0	86.99	0.00	0	0	0	0	0	0	0	0	0	0	0	0	0	0	0	2108	5.64	mg/L		0.00000
179	Fructose (1MEOX) (5TMS) isomer2 exp	Target	1	73.00	Not Identified									19.484	Default	0	0	0	0																																				
180	Fructose(1MEOX)(5TMS)iso2 C4-C6 m0 	Target	1	307.00	19.482	19.443	19.507	2.410	195	81	0.00491	Auto	1254	19.484	Default	0	0	0	0	0	0	88.94	0.00	0.00	20	103.00	0	0	88.94	0.00	217.00	0	0	86.99	0.00	0	0	0	0	0	0	0	0	0	0	0	0	0	0	0	2117	2.76	mg/L		0.00000
181	Fructose(1MEOX)(5TMS)iso2 C4-C6 m1	Target	1	308.00	19.523	19.497	19.543	1.370	52	38	0.00131	Auto	1256	19.484	Default	0	0	0	0	0	0	88.94	0.00	0.00	13	103.00	0	0	88.94	0.00	217.00	0	0	86.99	0.00	0	0	0	0	0	0	0	0	0	0	0	0	0	0	0	2119	1.27	mg/L		0.00000
182	Fructose(1MEOX)(5TMS)iso2 C4-C6 m2	Target	1	309.00	19.448	19.420	19.493	1.530	231	151	0.00582	Auto	1258	19.484	Default	0	0	0	0	0	0	88.94	0.00	0.00	28	103.00	0	0	88.94	0.00	217.00	0	0	86.99	0.00	0	0	0	0	0	0	0	0	0	0	0	0	0	0	0	2115	9.44	mg/L		0.00000
183	Fructose(1MEOX)(5TMS)iso2 C4-C6 m3	Target	1	310.00	19.475	19.450	19.493	1.610	37	23	0.00093	Auto	1261	19.484	Default	0	0	0	0	0	0	88.94	0.00	0.00	20	103.00	0	0	88.94	0.00	217.00	0	0	86.99	0.00	0	0	0	0	0	0	0	0	0	0	0	0	0	0	0	2117	2.61	mg/L		0.00000
184	Fructose(1MEOX)(5TMS)iso2 C1-C4 m0 	Target	1	364.00	19.487	19.473	19.507	1.550	17	11	0.00043	Auto	1265	19.484	Default	0	0	0	0	0	0	88.94	0.00	0.00	12	103.00	0	0	88.94	0.00	217.00	0	0	86.99	0.00	0	0	0	0	0	0	0	0	0	0	0	0	0	0	0	2117	0.85	mg/L		0.00000
185	Fructose(1MEOX)(5TMS)iso2 C1-C4 m1 	Target	1	365.00	19.466	19.453	19.483	1.070	31	29	0.00078	Auto	1268	19.484	Default	0	0	0	0	0	0	88.94	0.00	0.00	21	103.00	0	0	88.94	0.00	217.00	0	0	86.99	0.00	0	0	0	0	0	0	0	0	0	0	0	0	0	0	0	2116	3.30	mg/L		0.00000
186	Fructose(1MEOX)(5TMS)iso2 C1-C4 m2 	Target	1	366.00	19.475	19.450	19.493	1.740	66	38	0.00166	Auto	1270	19.484	Default	0	0	0	0	0	0	88.94	0.00	0.00	20	103.00	0	0	88.94	0.00	217.00	0	0	86.99	0.00	0	0	0	0	0	0	0	0	0	0	0	0	0	0	0	2117	2.21	mg/L		0.00000
187	Fructose(1MEOX)(5TMS)iso2 C1-C4 m3	Target	1	367.00	19.490	19.477	19.503	1.420	34	24	0.00086	Auto	1274	19.484	Default	0	0	0	0	0	0	88.94	0.00	0.00	5	103.00	0	0	88.94	0.00	217.00	0	0	86.99	0.00	0	0	0	0	0	0	0	0	0	0	0	0	0	0	0	2117	5.45	mg/L		0.00000
188	Fructose(1MEOX)(5TMS)iso2 C1-C4 m4	Target	1	368.00	19.460	19.443	19.473	1.220	22	18	0.00055	Auto	1277	19.484	Default	0	0	0	0	0	0	88.94	0.00	0.00	19	103.00	0	0	88.94	0.00	217.00	0	0	86.99	0.00	0	0	0	0	0	0	0	0	0	0	0	0	0	0	0	2116	0.96	mg/L		0.00000
189	Galactose(1MEOX)(5TMS)iso1 C3-C6 m0	Target	1	319.00	Not Identified									19.664	Default	0	0	0	0																																				
190	Galactose(1MEOX)(5TMS)iso1 C3-C6 m1	Target	1	320.00	19.722	19.703	19.740	1.270	51	40	0.00129	Auto	1280	19.664	Default	0	0	0	0	0	0	61.66	0.00	0.00	15	147.00	0	0	61.66	0.00	319.00	0	0	60.70	0.00	0	0	0	0	0	0	0	0	0	0	0	0	0	0	0	2130	0.77	mg/L		0.00000
191	Galactose(1MEOX)(5TMS)iso1 C3-C6 m2	Target	1	321.00	19.670	19.647	19.737	2.540	99	39	0.00249	Auto	1282	19.664	Default	0	0	0	0	0	0	61.66	0.00	0.00	10	147.00	0	0	61.66	0.00	319.00	0	0	60.70	0.00	0	0	0	0	0	0	0	0	0	0	0	0	0	0	0	2127	1.80	mg/L		0.00000
192	Galactose(1MEOX)(5TMS)iso1 C3-C6 m3	Target	1	322.00	19.682	19.657	19.693	1.560	42	27	0.00106	Auto	1284	19.664	Default	0	0	0	0	0	0	61.66	0.00	0.00	9	147.00	0	0	61.66	0.00	319.00	0	0	60.70	0.00	0	0	0	0	0	0	0	0	0	0	0	0	0	0	0	2128	2.91	mg/L		0.00000
193	Galactose(1MEOX)(5TMS)iso1 C3-C6 m4	Target	1	323.00	19.670	19.660	19.687	1.310	17	13	0.00043	Auto	1289	19.664	Default	0	0	0	0	0	0	61.66	0.00	0.00	8	147.00	0	0	61.66	0.00	319.00	0	0	60.70	0.00	0	0	0	0	0	0	0	0	0	0	0	0	0	0	0	2127	0.95	mg/L		0.00000
194	Galactose(1MEOX)(5TMS)iso1 C1-C2 m0	Target	1	160.00	19.709	19.683	19.727	1.560	39	25	0.00098	Auto	1292	19.664	Default	0	0	0	0	0	0	61.66	0.00	0.00	23	147.00	0	0	61.66	0.00	319.00	0	0	60.70	0.00	0	0	0	0	0	0	0	0	0	0	0	0	0	0	0	2129	0.52	mg/L		0.00000
195	Galactose(1MEOX)(5TMS)iso1 C1-C2 m1	Target	1	161.00	19.693	19.677	19.713	1.350	31	23	0.00078	Auto	1295	19.664	Default	0	0	0	0	0	0	61.66	0.00	0.00	8	147.00	0	0	61.66	0.00	319.00	0	0	60.70	0.00	0	0	0	0	0	0	0	0	0	0	0	0	0	0	0	2128	1.92	mg/L		0.00000
196	Galactose(1MEOX)(5TMS)iso1 C1-C2 m2	Target	1	162.00	19.658	19.640	19.677	1.300	61	47	0.00154	Auto	1298	19.664	Default	0	0	0	0	0	0	61.66	0.00	0.00	17	147.00	0	0	61.66	0.00	319.00	0	0	60.70	0.00	0	0	0	0	0	0	0	0	0	0	0	0	0	0	0	2126	1.77	mg/L		0.00000
197	Glucose(1MEOX)(5TMS)iso1 C3-C6 m0	Target	1	319.00	19.854	19.820	19.860	1.990	1073	540	0.02704	Auto	1300	19.774	Default	0	0	0	0	1073	540	65.81	100.00	0.00	51	319.00	1073	540	65.81	100.00	147.00	2976	1599	62.48	277.35	0	0	0	0	0	0	0	0	0	0	0	0	0	0	0	2137	1.42	mg/L		0.00000
198	Glucose(1MEOX)(5TMS)iso1 C3-C6 m1	Target	1	320.00	19.720	19.703	19.793	2.490	127	51	0.00320	Auto	1304	19.774	Default	0	0	0	0	0	0	65.81	0.00	0.00	17	319.00	0	0	65.81	0.00	147.00	0	0	62.48	0.00	0	0	0	0	0	0	0	0	0	0	0	0	0	0	0	2130	0.64	mg/L		0.00000
199	Glucose(1MEOX)(5TMS)iso1 C3-C6 m2	Target	1	321.00	19.767	19.733	19.797	1.670	85	51	0.00214	Auto	1309	19.774	Default	0	0	0	0	0	0	65.81	0.00	0.00	35	319.00	0	0	65.81	0.00	147.00	1139	349	62.48	1340.00	0	0	0	0	0	0	0	0	0	0	0	0	0	0	0	2132	0.38	mg/L		0.00000
200	Glucose(1MEOX)(5TMS)iso1 C3-C6 m3	Target	1	322.00	19.777	19.760	19.797	1.550	17	11	0.00043	Auto	1315	19.774	Default	0	0	0	0	0	0	65.81	0.00	0.00	36	319.00	0	0	65.81	0.00	147.00	1139	349	62.48	6700.00	0	0	0	0	0	0	0	0	0	0	0	0	0	0	0	2133	0.20	mg/L		0.00000
201	Glucose(1MEOX)(5TMS)iso1 C3-C6 m4	Target	1	323.00	19.755	19.723	19.780	2.400	84	35	0.00212	Auto	1321	19.774	Default	0	0	0	0	0	0	65.81	0.00	0.00	18	319.00	0	0	65.81	0.00	147.00	0	0	62.48	0.00	0	0	0	0	0	0	0	0	0	0	0	0	0	0	0	2132	0.26	mg/L		0.00000
202	Glucose(1MEOX)(5TMS)iso1 C1-C2  m0	Target	1	160.00	19.709	19.683	19.727	1.560	39	25	0.00098	Auto	1327	19.774	Default	0	0	0	0	0	0	65.81	0.00	0.00	21	319.00	0	0	65.81	0.00	147.00	0	0	62.48	0.00	0	0	0	0	0	0	0	0	0	0	0	0	0	0	0	2129	0.02	mg/L		0.00000
203	Glucose(1MEOX)(5TMS)iso1 C1-C2  m1	Target	1	161.00	19.774	19.757	19.790	1.030	62	60	0.00156	Auto	1334	19.774	Default	0	0	0	0	0	0	65.81	0.00	0.00	29	319.00	0	0	65.81	0.00	147.00	1139	349	62.48	1837.10	0	0	0	0	0	0	0	0	0	0	0	0	0	0	0	2133	0.28	mg/L		0.00000
204	Glucose(1MEOX)(5TMS)iso1 C1-C2  m2	Target	1	162.00	19.775	19.757	19.803	1.330	708	532	0.01784	Auto	1340	19.774	Default	0	0	0	0	0	0	65.81	0.00	0.00	27	319.00	0	0	65.81	0.00	147.00	1139	349	62.48	160.88	0	0	0	0	0	0	0	0	0	0	0	0	0	0	0	2133	20.57	mg/L		0.00000
205	Lysine(4TMS) C2-C6 m0	Target	1	317.00	19.862	19.820	19.900	2.500	909	363	0.02290	Auto	1345	19.869	Default	0	0	0	0	107762	41892	69.98	11855.01	0.00	64	73.00	107762	41892	69.98	11855.01	174.00	52998	18177	68.13	5830.36	0	0	0	0	0	0	0	0	0	0	0	0	0	0	0	2137	5.52	mg/L		0.00000
206	Lysine(4TMS) C2-C6 m1	Target	1	318.00	19.856	19.807	19.920	3.050	3787	1241	0.09542	Auto	1349	19.869	Default	0	0	0	0	107762	41892	69.98	2845.58	0.00	64	73.00	107762	41892	69.98	2845.58	174.00	52998	18177	68.13	1399.47	0	0	0	0	0	0	0	0	0	0	0	0	0	0	0	2137	132.53	mg/L		0.00000
207	Lysine(4TMS) C2-C6 m2	Target	1	319.00	19.854	19.813	19.903	2.460	6817	2766	0.17176	Auto	1354	19.869	Default	0	0	0	0	107762	41892	69.98	1580.78	0.00	62	73.00	107762	41892	69.98	1580.78	174.00	52998	18177	68.13	777.44	0	0	0	0	0	0	0	0	0	0	0	0	0	0	0	2137	30.23	mg/L		0.00000
208	Lysine(4TMS) C2-C6 m3	Target	1	320.00	19.850	19.800	19.907	2.720	8499	3127	0.21415	Auto	1358	19.869	Default	0	0	0	0	107762	41892	69.98	1267.94	0.00	63	73.00	107762	41892	69.98	1267.94	174.00	52998	18177	68.13	623.58	0	0	0	0	0	0	0	0	0	0	0	0	0	0	0	2137	56.74	mg/L		0.00000
209	Lysine(4TMS) C2-C6 m4	Target	1	321.00	19.857	19.797	19.957	2.780	6899	2486	0.17383	Auto	1362	19.869	Default	0	0	0	0	107762	41892	69.98	1561.99	0.00	64	73.00	107762	41892	69.98	1561.99	174.00	52998	18177	68.13	768.20	0	0	0	0	0	0	0	0	0	0	0	0	0	0	0	2137	272.44	mg/L		0.00000
210	Lysine(4TMS) C2-C6 m5	Target	1	322.00	19.845	19.793	19.890	2.700	2198	814	0.05538	Auto	1366	19.869	Default	0	0	0	0	107762	41892	69.98	4902.73	0.00	61	73.00	107762	41892	69.98	4902.73	174.00	52998	18177	68.13	2411.19	0	0	0	0	0	0	0	0	0	0	0	0	0	0	0	2136	126.62	mg/L		0.00000
211	Tyrosine(3TMS) C1-C2 m0	Target	1	218.00	20.178	20.133	20.237	2.810	24126	8583	0.60789	Auto	1372	20.190	Default	0	0	0	0	58377	22992	79.37	241.97	0.00	39	73.00	58377	22992	79.37	241.97	128.00	123	97	51.94	0.51	0	0	0	0	0	0	0	0	0	0	0	0	0	0	0	2154	27.39	mg/L		0.00000
212	Tyrosine(3TMS) C1-C2 m1	Target	1	219.00	20.175	20.110	20.237	2.840	52123	18359	1.31332	Auto	1378	20.190	Default	0	0	0	0	58377	22992	79.37	112.00	0.00	39	73.00	58377	22992	79.37	112.00	128.00	123	97	51.94	0.24	0	0	0	0	0	0	0	0	0	0	0	0	0	0	0	2154	390.62	mg/L		0.00000
213	Tyrosine(3TMS) C1-C2 m2	Target	1	220.00	20.177	20.093	20.277	3.100	35127	11347	0.88508	Auto	1384	20.190	Default	0	0	0	0	58377	22992	79.37	166.19	0.00	39	73.00	58377	22992	79.37	166.19	128.00	123	97	51.94	0.35	0	0	0	0	0	0	0	0	0	0	0	0	0	0	0	2154	1418.37	mg/L		0.00000
214	Tyrosine(3TMS) C2-C9 m0	Target	1	280.00	20.183	20.153	20.230	1.720	236	137	0.00595	Auto	1392	20.190	Default	0	0	0	0	58377	22992	79.37	24736.02	0.00	39	73.00	58377	22992	79.37	24736.02	128.00	123	97	51.94	52.12	0	0	0	0	0	0	0	0	0	0	0	0	0	0	0	2154	18.27	mg/L		0.00000
215	Tyrosine(3TMS) C2-C9 m1	Target	1	281.00	20.208	20.173	20.240	2.260	550	243	0.01386	Auto	1401	20.190	Default	0	0	0	0	0	0	79.37	0.00	0.00	7	73.00	0	0	79.37	0.00	128.00	0	0	51.94	0.00	0	0	0	0	0	0	0	0	0	0	0	0	0	0	0	2156	81.00	mg/L		0.00000
216	Tyrosine(3TMS) C2-C9 m2	Target	1	282.00	20.172	20.140	20.223	2.240	1257	560	0.03167	Auto	1409	20.190	Default	0	0	0	0	58377	22992	79.37	4644.15	0.00	37	73.00	58377	22992	79.37	4644.15	128.00	123	97	51.94	9.79	0	0	0	0	0	0	0	0	0	0	0	0	0	0	0	2154	140.00	mg/L		0.00000
217	Tyrosine(3TMS) C2-C9 m3	Target	1	283.00	20.167	20.130	20.230	2.410	2163	898	0.05450	Auto	1416	20.190	Default	0	0	0	0	58377	22992	79.37	2698.89	0.00	38	73.00	58377	22992	79.37	2698.89	128.00	55	47	51.94	2.54	0	0	0	0	0	0	0	0	0	0	0	0	0	0	0	2154	33.26	mg/L		0.00000
218	Tyrosine(3TMS) C2-C9 m4	Target	1	284.00	20.168	20.110	20.267	2.660	4458	1674	0.11233	Auto	1423	20.190	Default	0	0	0	0	58377	22992	79.37	1309.49	0.00	38	73.00	58377	22992	79.37	1309.49	128.00	55	47	51.94	1.23	0	0	0	0	0	0	0	0	0	0	0	0	0	0	0	2154	173.17	mg/L		0.00000
219	Tyrosine(3TMS) C2-C9 m5	Target	1	285.00	20.175	20.117	20.240	2.530	3739	1476	0.09421	Auto	1431	20.190	Default	0	0	0	0	58377	22992	79.37	1561.30	0.00	37	73.00	58377	22992	79.37	1561.30	128.00	123	97	51.94	3.29	0	0	0	0	0	0	0	0	0	0	0	0	0	0	0	2154	70.29	mg/L		0.00000
220	Tyrosine(3TMS) C2-C9 m6	Target	1	286.00	20.172	20.140	20.250	2.250	2135	949	0.05379	Auto	1438	20.190	Default	0	0	0	0	58377	22992	79.37	2734.29	0.00	37	73.00	58377	22992	79.37	2734.29	128.00	123	97	51.94	5.76	0	0	0	0	0	0	0	0	0	0	0	0	0	0	0	2154	111.65	mg/L		0.00000
221	Tyrosine(3TMS) C2-C9 m7	Target	1	287.00	20.163	20.127	20.220	2.070	1262	610	0.03180	Auto	1445	20.190	Default	0	0	0	0	58377	22992	79.37	4625.75	0.00	38	73.00	58377	22992	79.37	4625.75	128.00	55	47	51.94	4.36	0	0	0	0	0	0	0	0	0	0	0	0	0	0	0	2153	45.75	mg/L		0.00000
222	Tyrosine(3TMS) C2-C9 m8	Target	1	288.00	20.198	20.187	20.237	1.490	119	80	0.00300	Auto	1454	20.190	Default	0	0	0	0	0	0	79.37	0.00	0.00	11	73.00	0	0	79.37	0.00	128.00	123	97	51.94	103.36	0	0	0	0	0	0	0	0	0	0	0	0	0	0	0	2155	4.76	mg/L		0.00000
223	Tryptophan(2TMS) C1-C2 m0	Target	1	218.00	Not Identified									25.031	Default	0	0	0	0																																				
224	Tryptophan(2TMS) C1-C2 m1	Target	1	219.00	25.038	25.010	25.060	1.520	94	62	0.00237	Auto	1465	25.031	Default	0	0	0	0	0	0	79.37	0.00	0.00	9	73.00	0	0	79.37	0.00	128.00	37	35	51.94	39.36	0	0	0	0	0	0	0	0	0	0	0	0	0	0	0	2407	2.07	mg/L		0.00000
225	Tryptophan(2TMS) C1-C2 m2	Target	1	220.00	24.962	24.937	24.980	1.910	21	11	0.00053	Auto	1470	25.031	Default	0	0	0	0	0	0	79.37	0.00	0.00	11	73.00	0	0	79.37	0.00	128.00	77	55	51.94	366.67	0	0	0	0	0	0	0	0	0	0	0	0	0	0	0	2400	0.23	mg/L		0.00000
226	Tryptophan(2TMS) C3-C11 m0	Target	1	130.00	25.013	24.973	25.033	1.760	234	133	0.00590	Auto	1476	25.031	Default	0	0	0	0	0	0	79.37	0.00	0.00	16	73.00	0	0	79.37	0.00	128.00	114	54	51.94	48.72	0	0	0	0	0	0	0	0	0	0	0	0	0	0	0	2404	3.69	mg/L		0.00000
227	Tryptophan(2TMS) C3-C11 m1	Target	1	131.00	25.018	25.000	25.040	1.550	192	124	0.00484	Auto	1484	25.031	Default	0	0	0	0	0	0	79.37	0.00	0.00	6	73.00	0	0	79.37	0.00	128.00	114	54	51.94	59.38	0	0	0	0	0	0	0	0	0	0	0	0	0	0	0	2405	3.28	mg/L		0.00000
228	Tryptophan(2TMS) C3-C11 m2	Target	1	132.00	25.013	24.990	25.030	1.580	60	38	0.00151	Auto	1491	25.031	Default	0	0	0	0	0	0	79.37	0.00	0.00	10	73.00	0	0	79.37	0.00	128.00	114	54	51.94	190.00	0	0	0	0	0	0	0	0	0	0	0	0	0	0	0	2404	3.04	mg/L		0.00000
229	Tryptophan(2TMS) C3-C11 m3	Target	1	133.00	25.060	25.020	25.087	1.720	124	72	0.00312	Auto	1498	25.031	Default	0	0	0	0	0	0	79.37	0.00	0.00	23	73.00	0	0	79.37	0.00	128.00	37	35	51.94	29.84	0	0	0	0	0	0	0	0	0	0	0	0	0	0	0	2408	1.00	mg/L		0.00000
230	Tryptophan(2TMS) C3-C11 m4	Target	1	134.00	25.061	25.037	25.077	1.500	51	34	0.00129	Auto	1504	25.031	Default	0	0	0	0	0	0	79.37	0.00	0.00	15	73.00	0	0	79.37	0.00	128.00	0	0	51.94	0.00	0	0	0	0	0	0	0	0	0	0	0	0	0	0	0	2409	4.08	mg/L		0.00000
231	Tryptophan(2TMS) C3-C11 m5	Target	1	135.00	25.037	25.010	25.053	1.890	17	9	0.00043	Auto	1511	25.031	Default	0	0	0	0	0	0	79.37	0.00	0.00	14	73.00	0	0	79.37	0.00	128.00	37	35	51.94	217.65	0	0	0	0	0	0	0	0	0	0	0	0	0	0	0	2406	1.80	mg/L		0.00000
232	Tryptophan(2TMS) C3-C11 m6	Target	1	136.00	25.010	24.997	25.027	1.080	28	26	0.00071	Auto	1519	25.031	Default	0	0	0	0	0	0	79.37	0.00	0.00	11	73.00	0	0	79.37	0.00	128.00	114	54	51.94	407.14	0	0	0	0	0	0	0	0	0	0	0	0	0	0	0	2404	1.11	mg/L		0.00000
233	Tryptophan(2TMS) C3-C11 m7	Target	1	137.00	24.971	24.943	25.020	1.950	86	44	0.00217	Auto	1526	25.031	Default	0	0	0	0	0	0	79.37	0.00	0.00	22	73.00	0	0	79.37	0.00	128.00	77	55	51.94	89.53	0	0	0	0	0	0	0	0	0	0	0	0	0	0	0	2401	0.73	mg/L		0.00000
234	Tryptophan(2TMS) C3-C11 m8	Target	1	138.00	25.048	25.033	25.060	1.420	27	19	0.00068	Auto	1533	25.031	Default	0	0	0	0	0	0	79.37	0.00	0.00	9	73.00	0	0	79.37	0.00	128.00	37	35	51.94	137.04	0	0	0	0	0	0	0	0	0	0	0	0	0	0	0	2407	2.48	mg/L		0.00000
235	Tryptophan(2TMS) C3-C11 m9	Target	1	139.00	25.042	25.023	25.067	1.510	56	37	0.00141	Auto	1541	25.031	Default	0	0	0	0	0	0	79.37	0.00	0.00	15	73.00	0	0	79.37	0.00	128.00	37	35	51.94	66.07	0	0	0	0	0	0	0	0	0	0	0	0	0	0	0	2407	2.76	mg/L		0.00000
236	Tryptophan(3TMS) C1-C2 m0	Target	1	218.00	Not Identified									25.460	Default	0	0	0	0																																				
237	Tryptophan(3TMS) C1-C2 m1	Target	1	219.00	Not Identified									25.460	Default	0	0	0	0																																				
238	Tryptophan(3TMS) C1-C2 m2	Target	1	220.00	25.459	25.433	25.480	1.490	76	51	0.00191	Auto	1557	25.460	Default	0	0	0	0	0	0	79.37	0.00	0.00	18	73.00	0	0	79.37	0.00	128.00	17	14	51.94	22.37	0	0	0	0	0	0	0	0	0	0	0	0	0	0	0	2443	1.64	mg/L		0.00000
239	Tryptophan(3TMS) C3-C11 m0	Target	1	202.00	25.480	25.467	25.510	1.400	14	10	0.00035	Auto	1565	25.460	Default	0	0	0	0	0	0	79.37	0.00	0.00	12	73.00	0	0	79.37	0.00	128.00	17	14	51.94	121.43	0	0	0	0	0	0	0	0	0	0	0	0	0	0	0	2445	1.46	mg/L		0.00000
240	Tryptophan(3TMS) C3-C11 m1	Target	1	203.00	25.489	25.463	25.507	1.360	34	25	0.00086	Auto	1573	25.460	Default	0	0	0	0	0	0	79.37	0.00	0.00	14	73.00	0	0	79.37	0.00	128.00	33	28	51.94	97.06	0	0	0	0	0	0	0	0	0	0	0	0	0	0	0	2446	2.17	mg/L		0.00000
241	Tryptophan(3TMS) C3-C11 m2	Target	1	204.00	Not Identified									25.460	Default	0	0	0	0																																				
242	Tryptophan(3TMS) C3-C11 m3	Target	1	205.00	Not Identified									25.460	Default	0	0	0	0																																				
243	Tryptophan(3TMS) C3-C11 m4	Target	1	206.00	25.457	25.437	25.483	1.200	168	140	0.00423	Auto	1590	25.460	Default	0	0	0	0	0	0	79.37	0.00	0.00	21	73.00	0	0	79.37	0.00	128.00	17	14	51.94	10.12	0	0	0	0	0	0	0	0	0	0	0	0	0	0	0	2443	6.09	mg/L		0.00000
244	Tryptophan(3TMS) C3-C11 m5	Target	1	207.00	25.456	25.430	25.493	2.350	803	341	0.02023	Auto	1597	25.460	Default	0	0	0	0	0	0	79.37	0.00	0.00	13	73.00	0	0	79.37	0.00	128.00	17	14	51.94	2.12	0	0	0	0	0	0	0	0	0	0	0	0	0	0	0	2443	3.69	mg/L		0.00000
245	Tryptophan(3TMS) C3-C11 m6	Target	1	208.00	25.443	25.400	25.470	1.990	319	160	0.00804	Auto	1606	25.460	Default	0	0	0	0	0	0	79.37	0.00	0.00	19	73.00	0	0	79.37	0.00	128.00	44	27	51.94	13.79	0	0	0	0	0	0	0	0	0	0	0	0	0	0	0	2442	2.21	mg/L		0.00000
246	Tryptophan(3TMS) C3-C11 m7	Target	1	209.00	25.456	25.433	25.483	1.690	130	77	0.00328	Auto	1615	25.460	Default	0	0	0	0	0	0	79.37	0.00	0.00	20	73.00	0	0	79.37	0.00	128.00	17	14	51.94	13.08	0	0	0	0	0	0	0	0	0	0	0	0	0	0	0	2443	38.50	mg/L		0.00000
247	Tryptophan(3TMS) C3-C11 m8	Target	1	210.00	25.467	25.450	25.473	1.250	20	16	0.00050	Auto	1624	25.460	Default	0	0	0	0	0	0	79.37	0.00	0.00	11	73.00	0	0	79.37	0.00	128.00	17	14	51.94	85.00	0	0	0	0	0	0	0	0	0	0	0	0	0	0	0	2444	0.71	mg/L		0.00000
248	Tryptophan(3TMS) C3-C11 m9	Target	1	211.00	25.448	25.440	25.467	1.000	11	11	0.00028	Auto	1633	25.460	Default	0	0	0	0	0	0	79.37	0.00	0.00	13	73.00	0	0	79.37	0.00	128.00	44	27	51.94	400.00	0	0	0	0	0	0	0	0	0	0	0	0	0	0	0	2442	0.55	mg/L		0.00000
249	Sucrose(8TMS) (C1-C6gluc and fruc) m0	Target	1	361.00	30.546	30.520	30.590	2.270	134	59	0.00338	Auto	1642	30.580	Default	0	0	0	0	0	0	52.09	0.00	0.00	14	73.00	0	0	52.09	0.00	362.00	10	10	30.56	7.46	0	0	0	0	0	0	0	0	0	0	0	0	0	0	0	2958	32.78	mg/L		0.00000
250	Sucrose(8TMS) (C1-C6gluc and fruc) m1	Target	1	362.00	30.602	30.563	30.637	2.440	61	25	0.00154	Auto	1648	30.580	Default	0	0	0	0	0	0	52.09	0.00	0.00	17	73.00	0	0	52.09	0.00	362.00	61	25	30.56	100.00	0	0	0	0	0	0	0	0	0	0	0	0	0	0	0	2963	2.38	mg/L		0.00000
251	Sucrose(8TMS) (C1-C6gluc and fruc) m2	Target	1	363.00	30.610	30.590	30.630	1.220	39	32	0.00098	Auto	1653	30.580	Default	0	0	0	0	0	0	52.09	0.00	0.00	6	73.00	0	0	52.09	0.00	362.00	61	25	30.56	156.41	0	0	0	0	0	0	0	0	0	0	0	0	0	0	0	2963	4.27	mg/L		0.00000
252	Sucrose(8TMS) (C1-C6gluc and fruc) m3	Target	1	364.00	30.570	30.553	30.583	1.330	16	12	0.00040	Auto	1658	30.580	Default	0	0	0	0	0	0	52.09	0.00	0.00	7	73.00	0	0	52.09	0.00	362.00	0	0	30.56	0.00	0	0	0	0	0	0	0	0	0	0	0	0	0	0	0	2960	1.03	mg/L		0.00000
253	Sucrose(8TMS) (C1-C6gluc and fruc) m4	Target	1	365.00	30.557	30.520	30.583	2.250	72	32	0.00181	Auto	1665	30.580	Default	0	0	0	0	0	0	52.09	0.00	0.00	12	73.00	0	0	52.09	0.00	362.00	0	0	30.56	0.00	0	0	0	0	0	0	0	0	0	0	0	0	0	0	0	2959	18.29	mg/L		0.00000
254	Sucrose(8TMS) (C1-C6gluc and fruc) m5	Target	1	366.00	30.563	30.547	30.607	3.620	76	21	0.00191	Auto	1672	30.580	Default	0	0	0	0	0	0	52.09	0.00	0.00	6	73.00	0	0	52.09	0.00	362.00	0	0	30.56	0.00	0	0	0	0	0	0	0	0	0	0	0	0	0	0	0	2960	1.26	mg/L		0.00000
255	Sucrose(8TMS) (C1-C6gluc and fruc) m6	Target	1	367.00	30.603	30.570	30.617	2.930	85	29	0.00214	Auto	1678	30.580	Default	0	0	0	0	0	0	52.09	0.00	0.00	10	73.00	0	0	52.09	0.00	362.00	61	25	30.56	71.77	0	0	0	0	0	0	0	0	0	0	0	0	0	0	0	2963	17.40	mg/L		0.00000
256	Sucrose(8TMS) (C1-C6fructose) m0	Target	1	451.00	30.561	30.553	30.583	0.960	23	24	0.00058	Auto	1683	30.580	Default	0	0	0	0	0	0	52.09	0.00	0.00	8	73.00	0	0	52.09	0.00	362.00	0	0	30.56	0.00	0	0	0	0	0	0	0	0	0	0	0	0	0	0	0	2959	1.60	mg/L		0.00000
257	Sucrose(8TMS) (C1-C6fructose) m1	Target	1	452.00	30.573	30.547	30.590	1.440	39	27	0.00098	Auto	1690	30.580	Default	0	0	0	0	0	0	52.09	0.00	0.00	4	73.00	0	0	52.09	0.00	362.00	0	0	30.56	0.00	0	0	0	0	0	0	0	0	0	0	0	0	0	0	0	2960	1.58	mg/L		0.00000
258	Sucrose(8TMS) (C1-C6fructose) m2	Target	1	453.00	30.557	30.547	30.580	1.200	12	10	0.00030	Auto	1696	30.580	Default	0	0	0	0	0	0	52.09	0.00	0.00	11	73.00	0	0	52.09	0.00	362.00	0	0	30.56	0.00	0	0	0	0	0	0	0	0	0	0	0	0	0	0	0	2959	1.82	mg/L		0.00000
259	Sucrose(8TMS) (C1-C6fructose) m3	Target	1	454.00	30.545	30.513	30.587	2.430	68	28	0.00171	Auto	1700	30.580	Default	0	0	0	0	0	0	52.09	0.00	0.00	17	73.00	0	0	52.09	0.00	362.00	10	10	30.56	14.71	0	0	0	0	0	0	0	0	0	0	0	0	0	0	0	2958	1.87	mg/L		0.00000
260	Sucrose(8TMS) (C1-C6fructose) m4	Target	1	455.00	30.567	30.557	30.587	1.330	12	9	0.00030	Auto	1707	30.580	Default	0	0	0	0	0	0	52.09	0.00	0.00	7	73.00	0	0	52.09	0.00	362.00	0	0	30.56	0.00	0	0	0	0	0	0	0	0	0	0	0	0	0	0	0	2960	1.38	mg/L		0.00000
261	Sucrose(8TMS) (C1-C6fructose) m5	Target	1	456.00	30.587	30.570	30.607	1.320	33	25	0.00083	Auto	1714	30.580	Default	0	0	0	0	0	0	52.09	0.00	0.00	7	73.00	0	0	52.09	0.00	362.00	61	25	30.56	184.85	0	0	0	0	0	0	0	0	0	0	0	0	0	0	0	2961	15.00	mg/L		0.00000
262	Sucrose(8TMS) (C1-C6fructose) m6	Target	1	457.00	30.576	30.537	30.593	1.840	59	32	0.00149	Auto	1719	30.580	Default	0	0	0	0	0	0	52.09	0.00	0.00	7	73.00	0	0	52.09	0.00	362.00	0	0	30.56	0.00	0	0	0	0	0	0	0	0	0	0	0	0	0	0	0	2961	7.11	mg/L		0.00000

